5565754 486 0.02 0.02 0.00 0.00 0.00 1170
5570753 491 0.03 0.01 0.01 0.01 0.00 1121
5575752 458 -0.01 -0.03 0.01 0.01 0.00 1193
5580752 473 0.01 -0.00 -0.01 0.01 0.00 1189
5585752 495 0.03 0.02 -0.01 0.01 0.00 1157
5590752 469 0.00 -0.02 0.00 0.00 0.00 1154
5595752 460 -0.01 -0.02 0.00 0.00 0.00 1192
5600752 488 0.02 0.01 -0.01 0.01 0.01 1154
5605752 471 0.01 -0.01 -0.00 0.00 0.01 1192
5610752 445 -0.02 -0.02 0.00 0.00 0.01 1190
5615752 477 0.01 0.02 -0.01 0.01 0.01 1156
5620752 486 0.02 0.02 -0.00 0.00 0.01 1155
5625752 454 -0.01 -0.02 0.01 0.01 0.01 1192
5630752 472 0.01 0.01 0.01 0.01 0.01 1119
5635752 498 0.03 0.03 -0.00 0.00 0.01 1157
5640752 467 0.00 -0.01 0.01 0.01 0.01 1154
5645752 459 -0.01 -0.01 0.01 0.01 0.01 1192
5650753 487 0.02 0.01 -0.01 0.01 0.01 1154
5655753 474 0.01 -0.00 -0.00 0.00 0.01 1192
5660753 453 -0.01 -0.02 0.00 0.00 0.01 1190
5665753 485 0.02 0.02 -0.00 0.00 0.01 1157
5670753 488 0.02 0.01 -0.00 0.00 0.01 1155
5675753 449 -0.02 -0.03 0.01 0.01 0.01 1192
5680753 463 -0.00 -0.00 -0.01 0.01 0.01 1225
5685753 477 0.01 0.01 -0.01 0.01 0.01 1156
5690753 447 -0.02 -0.02 -0.00 0.00 0.01 1225
5695753 442 -0.03 -0.01 0.00 0.00 0.01 1192
5700753 470 0.00 0.02 -0.01 0.01 0.00 1154
5705753 457 -0.01 0.00 0.00 0.00 0.00 1157
5710753 433 -0.03 -0.01 0.01 0.01 0.01 1190
5715753 458 -0.01 0.02 -0.00 0.00 0.01 1192
5720753 464 -0.00 0.02 -0.00 0.00 0.00 1190
5725753 436 -0.03 -0.01 0.01 0.01 0.01 1193
5730753 445 -0.02 0.00 0.00 0.00 0.01 1154
5735753 464 -0.00 0.02 -0.00 0.00 0.00 1192
5740753 439 -0.03 -0.01 0.00 0.00 0.00 1189
5745753 436 -0.03 -0.01 0.00 0.00 0.00 1193
5750753 467 0.00 0.02 -0.01 0.01 0.00 1154
5755753 454 -0.01 -0.00 0.00 0.00 0.00 1192
5760753 434 -0.03 -0.02 0.01 0.01 0.00 1190
5765753 457 -0.01 0.01 -0.01 0.01 0.00 1192
5770753 464 -0.00 0.01 -0.01 0.01 0.01 1189
5775753 437 -0.03 -0.02 0.00 0.00 0.00 1193
5780753 444 -0.02 -0.00 -0.00 0.00 0.00 1226
5785753 462 -0.00 0.01 -0.01 0.01 0.01 1192
5790753 440 -0.03 -0.01 -0.00 0.00 0.00 1225
5795754 435 -0.03 -0.01 0.00 0.00 0.00 1193
5800753 460 -0.01 0.02 -0.01 0.01 0.00 1189
5805753 452 -0.01 0.00 0.00 0.00 0.00 1156
5810753 435 -0.03 -0.01 0.01 0.01 0.00 1190
5815754 456 -0.01 0.01 -0.00 0.00 0.00 1192
5820754 461 -0.00 0.01 -0.00 0.00 0.00 1189
5825754 437 -0.03 -0.02 0.01 0.01 0.00 1193
5830754 447 -0.02 -0.00 -0.00 0.00 0.00 1226
5835754 463 -0.00 0.01 -0.01 0.01 0.00 1191
5840754 443 -0.02 -0.01 0.00 0.00 0.00 1190
5845754 441 -0.03 -0.01 0.00 0.00 0.00 1193
5850754 466 0.00 0.02 -0.00 0.00 0.00 1154
5855754 453 -0.01 -0.00 0.00 0.00 0.00 1193
5860754 436 -0.03 -0.02 0.00 0.00 0.00 1189
5865754 457 -0.01 0.01 -0.01 0.01 0.00 1192
5870754 467 0.00 0.01 -0.00 0.00 0.00 1154
5875754 443 -0.02 -0.01 0.01 0.01 0.00 1192
5880754 455 -0.01 0.00 0.00 0.00 0.00 1154
5885754 475 0.01 0.02 -0.00 0.00 0.00 1156
5890754 451 -0.02 -0.01 0.00 0.00 0.00 1190
5895754 448 -0.02 -0.01 0.00 0.00 0.00 1193
5900754 473 0.01 0.01 -0.01 0.01 0.00 1154
5905754 467 0.00 0.00 -0.00 0.00 0.00 1157
5910754 452 -0.01 -0.01 0.01 0.01 0.00 1190
5915754 475 0.01 0.01 -0.00 0.00 0.00 1157
5920754 480 0.02 0.01 -0.00 0.00 0.00 1154
5925754 457 -0.01 -0.02 0.00 0.00 0.00 1191
5930754 469 0.00 -0.00 -0.00 0.00 0.00 1190
5935754 492 0.03 0.02 -0.01 0.01 0.00 1157
5940754 465 -0.00 -0.02 0.00 0.00 0.00 1190
5945754 462 -0.00 -0.01 0.00 0.00 0.00 1192
5950754 488 0.02 0.01 -0.01 0.01 0.00 1153
5955754 478 0.01 -0.00 -0.00 0.00 0.00 1192
5960754 461 -0.00 -0.02 0.01 0.01 0.00 1190
5965754 484 0.02 0.01 -0.00 0.00 0.00 1157
5970755 488 0.02 0.01 -0.00 0.00 0.00 1154
5975755 465 -0.00 -0.01 0.01 0.01 0.00 1192
5980755 478 0.01 0.00 0.00 0.00 0.00 1119
5985755 498 0.03 0.02 -0.00 0.00 0.00 1157
5990755 476 0.01 -0.01 0.01 0.01 0.00 1154
5995755 472 0.01 -0.01 0.00 0.00 0.00 1157
6000755 500 0.04 0.02 -0.01 0.01 0.00 1154
6005755 492 0.03 0.00 0.00 0.00 0.00 1122
6010755 472 0.01 -0.02 0.01 0.01 0.00 1154
6015755 493 0.03 0.01 -0.00 0.00 0.00 1157
6020755 497 0.03 0.01 -0.01 0.01 0.00 1154
6025755 466 0.00 -0.02 0.00 0.00 0.00 1157
6030755 477 0.01 -0.00 -0.01 0.01 0.00 1190
6035755 493 0.03 0.01 -0.01 0.01 0.01 1157
6040755 465 -0.00 -0.01 0.00 0.00 0.00 1190
6045755 457 -0.01 -0.01 0.00 0.00 0.00 1192
6050755 481 0.02 0.02 -0.01 0.01 0.00 1155
6055755 463 -0.00 -0.00 0.00 0.00 0.00 1192
6060755 442 -0.03 -0.01 0.01 0.01 0.00 1190
6065755 465 -0.00 0.02 -0.00 0.00 0.00 1192
6070755 473 0.01 0.02 0.00 0.00 0.00 1119
6075755 445 -0.02 -0.01 0.01 0.01 0.01 1192
6080755 454 -0.01 0.00 0.01 0.01 0.01 1154
6085755 475 0.01 0.02 -0.00 0.00 0.00 1157
6090755 449 -0.02 -0.01 0.01 0.01 0.00 1190
6095755 445 -0.02 -0.01 0.00 0.00 0.01 1192
6100755 474 0.01 0.02 -0.01 0.01 0.01 1154
6105755 462 -0.00 -0.00 0.00 0.00 0.01 1192
6110755 438 -0.03 -0.02 0.01 0.01 0.01 1190
6115755 466 0.00 0.01 -0.01 0.01 0.01 1156
6120755 471 0.01 0.01 -0.01 0.01 0.01 1154
6125755 438 -0.03 -0.02 0.00 0.00 0.00 1192
6130756 449 -0.02 -0.00 -0.00 0.00 0.00 1225
6135756 474 0.01 0.02 -0.01 0.01 0.01 1157
6140756 445 -0.02 -0.01 0.00 0.00 0.01 1190
6145756 437 -0.03 -0.01 0.00 0.00 0.01 1192
6150756 467 0.00 0.02 -0.01 0.01 0.01 1155
6155756 452 -0.01 -0.00 -0.00 0.00 0.01 1227
6160756 429 -0.04 -0.02 0.01 0.01 0.01 1190
6165756 457 -0.01 0.02 -0.00 0.00 0.01 1192
6170756 461 -0.00 0.01 -0.00 0.00 0.00 1189
6175756 426 -0.04 -0.02 0.01 0.01 0.01 1192
6180756 439 -0.03 0.00 -0.00 0.00 0.00 1190
6185756 458 -0.01 0.02 -0.01 0.01 0.00 1192
6190756 430 -0.04 -0.01 0.00 0.00 0.00 1190
6195756 430 -0.04 -0.00 0.00 0.00 0.00 1192
6200756 462 -0.00 0.03 -0.00 0.00 0.00 1190
6205756 448 -0.02 0.00 0.01 0.01 0.00 1157
6210756 431 -0.04 -0.01 0.01 0.01 0.01 1190
6215756 463 -0.00 0.02 -0.00 0.00 0.01 1192
6220756 469 0.00 0.01 0.00 0.00 0.00 1119
6225756 441 -0.03 -0.02 0.01 0.01 0.00 1192
6230756 462 -0.00 0.00 -0.00 0.00 0.00 1189
6235756 481 0.02 0.01 -0.01 0.01 0.00 1157
6240756 449 -0.02 -0.02 0.00 0.00 0.00 1190
6245756 443 -0.02 -0.02 -0.01 0.01 0.00 1228
6250756 474 0.01 0.01 -0.02 0.02 0.01 1154
6255756 458 -0.01 -0.01 -0.01 0.01 0.01 1227
6260756 433 -0.03 -0.02 0.00 0.00 0.01 1190
6265756 461 -0.00 0.01 -0.01 0.01 0.01 1192
6270756 466 0.00 0.01 -0.00 0.00 0.01 1155
6275756 438 -0.03 -0.01 0.01 0.01 0.01 1192
6280756 453 -0.01 0.01 0.00 0.00 0.01 1154
6285756 476 0.01 0.02 -0.00 0.00 0.01 1157
6290757 448 -0.02 -0.01 0.01 0.01 0.01 1190
6295757 448 -0.02 -0.01 0.01 0.01 0.01 1192
6300757 484 0.02 0.03 -0.00 0.00 0.01 1155
6305757 465 -0.00 -0.00 0.01 0.01 0.01 1192
6310757 446 -0.02 -0.02 0.01 0.01 0.01 1190
6315757 470 0.00 0.01 -0.01 0.01 0.01 1157
6320757 473 0.01 0.01 -0.01 0.01 0.01 1154
6325757 444 -0.02 -0.02 0.00 0.00 0.01 1192
6330757 460 -0.01 0.00 -0.00 0.00 0.01 1190
6335757 474 0.01 0.01 -0.01 0.01 0.01 1156
6340757 447 -0.02 -0.02 0.00 0.00 0.01 1190
6345757 445 -0.02 -0.01 0.00 0.00 0.01 1192
6350757 469 0.00 0.02 -0.01 0.01 0.01 1155
6355757 460 -0.01 0.00 0.00 0.00 0.01 1157
6360757 443 -0.02 -0.01 0.01 0.01 0.01 1190
6365757 468 0.00 0.02 0.00 0.00 0.00 1122
6370757 474 0.01 0.01 0.00 0.00 0.00 1119
6375757 447 -0.02 -0.02 0.01 0.01 0.00 1192
6380757 462 -0.00 0.00 0.00 0.00 0.00 1154
6385757 480 0.02 0.02 -0.01 0.01 0.00 1157
6390757 452 -0.01 -0.02 0.00 0.00 0.00 1190
6395757 457 -0.01 -0.01 0.00 0.00 0.00 1192
6400757 486 0.02 0.02 -0.01 0.01 0.00 1155
6405757 469 0.00 -0.01 0.00 0.00 0.00 1157
6410757 452 -0.01 -0.02 0.01 0.01 0.00 1190
6415757 479 0.01 0.01 -0.01 0.01 0.00 1157
6420757 484 0.02 0.01 -0.00 0.00 0.00 1155
6425757 459 -0.01 -0.02 0.01 0.01 0.00 1192
6430757 469 0.00 -0.00 -0.00 0.00 0.00 1190
6435757 487 0.02 0.01 -0.01 0.01 0.00 1157
6440757 464 -0.00 -0.01 0.00 0.00 0.00 1190
6445758 462 -0.00 -0.01 0.00 0.00 0.00 1192
6450758 483 0.02 0.01 -0.01 0.01 0.00 1154
6455758 472 0.01 -0.00 -0.00 0.00 0.00 1192
6460758 458 -0.01 -0.01 0.00 0.00 0.00 1190
6465758 484 0.02 0.02 -0.00 0.00 0.00 1157
6470758 488 0.02 0.01 0.00 0.00 0.00 1119
6475758 461 -0.00 -0.02 0.01 0.01 0.00 1192
6480758 478 0.01 0.00 -0.00 0.00 0.00 1154
6485758 497 0.03 0.02 -0.00 0.00 0.00 1157
6490758 470 0.00 -0.02 0.01 0.01 0.00 1155
6495758 472 0.01 -0.01 0.00 0.00 0.00 1157
6500758 492 0.03 0.01 -0.01 0.01 0.00 1154
6505758 479 0.01 -0.01 -0.00 0.00 0.00 1192
6510758 464 -0.00 -0.02 0.00 0.00 0.00 1190
6515758 488 0.02 0.01 -0.01 0.01 0.00 1157
6520758 490 0.03 0.01 -0.00 0.00 0.00 1155
6525758 459 -0.01 -0.02 0.01 0.01 0.00 1192
6530758 473 0.01 0.00 -0.00 0.00 0.00 1155
6535758 489 0.03 0.02 -0.01 0.01 0.00 1157
6540758 464 -0.00 -0.01 0.00 0.00 0.00 1190
6545758 461 -0.00 -0.01 0.00 0.00 0.00 1192
6550758 488 0.02 0.02 -0.00 0.00 0.00 1155
6555758 474 0.01 0.00 0.00 0.00 0.00 1122
6560758 457 -0.01 -0.01 0.01 0.01 0.01 1190
6565758 479 0.01 0.01 -0.00 0.00 0.00 1157
6570758 481 0.02 0.01 -0.00 0.00 0.00 1155
6575758 449 -0.02 -0.02 0.01 0.01 0.00 1192
6580758 468 0.00 0.01 -0.00 0.00 0.00 1154
6585758 491 0.03 0.02 -0.00 0.00 0.00 1157
6590758 461 -0.00 -0.01 0.01 0.01 0.00 1190
6595758 460 -0.01 -0.01 0.01 0.01 0.00 1192
6600758 480 0.02 0.01 -0.01 0.01 0.01 1155
6605758 462 -0.00 -0.01 -0.00 0.00 0.01 1227
6610758 441 -0.03 -0.02 -0.00 0.00 0.00 1225
6615759 463 -0.00 0.01 -0.01 0.01 0.01 1192
6620759 462 -0.00 0.01 -0.01 0.01 0.01 1190
6625759 431 -0.04 -0.02 0.01 0.01 0.01 1193
6630759 440 -0.03 0.00 -0.00 0.00 0.01 1190
6635759 456 -0.01 0.02 -0.01 0.01 0.01 1192
6640759 427 -0.04 -0.01 0.01 0.01 0.01 1189
6645759 425 -0.04 -0.00 0.01 0.01 0.01 1192
6650759 456 -0.01 0.03 -0.00 0.00 0.00 1190
6655759 445 -0.02 0.01 0.01 0.01 0.01 1157
6660759 429 -0.04 -0.01 0.02 0.02 0.01 1190
6665759 463 -0.00 0.02 0.00 0.00 0.01 1157
6670759 473 0.01 0.02 0.01 0.01 0.01 1120
6675759 448 -0.02 -0.02 0.01 0.01 0.01 1192
6680759 468 0.00 0.00 0.00 0.00 0.01 1120
6685759 496 0.03 0.02 -0.01 0.01 0.01 1156
6690759 472 0.01 -0.02 0.00 0.00 0.01 1155
6695759 475 0.01 -0.02 -0.00 0.00 0.01 1193
6700759 506 0.04 0.01 -0.01 0.01 0.01 1155
6705759 492 0.03 -0.01 -0.01 0.01 0.01 1192
6710759 473 0.01 -0.03 -0.00 0.00 0.01 1189
6715759 499 0.04 0.00 -0.02 0.02 0.01 1158
6720759 500 0.04 0.00 -0.01 0.01 0.01 1155
6725759 469 0.00 -0.03 -0.00 0.00 0.01 1192
6730759 484 0.02 0.00 -0.01 0.01 0.01 1155
6735759 504 0.04 0.02 -0.01 0.01 0.01 1157
6740759 475 0.01 -0.01 0.01 0.01 0.01 1154
6745759 464 -0.00 -0.01 0.00 0.00 0.01 1192
6750759 493 0.03 0.02 -0.01 0.01 0.01 1155
6755759 474 0.01 0.00 0.00 0.00 0.01 1121
6760759 453 -0.01 -0.01 0.01 0.01 0.01 1190
6765760 477 0.01 0.02 -0.00 0.00 0.01 1157
6770760 479 0.01 0.02 0.00 0.00 0.01 1119
6775760 451 -0.02 -0.01 0.01 0.01 0.01 1192
6780760 461 -0.00 0.01 0.00 0.00 0.01 1155
6785760 485 0.02 0.02 -0.00 0.00 0.00 1158
6790760 458 -0.01 -0.01 0.01 0.01 0.01 1190
6795760 458 -0.01 -0.00 0.01 0.01 0.01 1192
6800760 482 0.02 0.02 -0.00 0.00 0.01 1155
6805760 465 -0.00 -0.01 0.00 0.00 0.01 1192
6810760 450 -0.02 -0.02 0.00 0.00 0.00 1190
6815760 474 0.01 0.01 -0.01 0.01 0.01 1157
6820760 477 0.01 0.01 -0.00 0.00 0.01 1154
6825760 449 -0.02 -0.02 0.00 0.00 0.00 1192
6830760 462 -0.00 -0.00 -0.00 0.00 0.00 1225
6835760 478 0.01 0.01 -0.01 0.01 0.01 1157
6840760 449 -0.02 -0.02 0.00 0.00 0.00 1190
6845760 451 -0.02 -0.01 -0.00 0.00 0.00 1228
6850760 473 0.01 0.02 -0.01 0.01 0.00 1155
6855760 458 -0.01 -0.00 0.00 0.00 0.00 1192
6860760 440 -0.03 -0.02 0.01 0.01 0.00 1190
6865760 465 -0.00 0.01 -0.00 0.00 0.00 1192
6870760 468 0.00 0.01 -0.00 0.00 0.00 1155
6875760 440 -0.03 -0.02 0.01 0.01 0.00 1192
6880760 456 -0.01 0.01 0.00 0.00 0.00 1155
6885760 473 0.01 0.02 -0.00 0.00 0.00 1157
6890760 447 -0.02 -0.01 0.01 0.01 0.00 1190
6895760 448 -0.02 -0.01 0.00 0.00 0.00 1192
6900760 473 0.01 0.02 -0.01 0.01 0.00 1155
6905760 461 -0.00 -0.00 0.00 0.00 0.00 1192
6910760 440 -0.03 -0.02 0.01 0.01 0.00 1191
6915760 465 -0.00 0.01 -0.01 0.01 0.00 1192
6920760 461 -0.00 0.00 -0.01 0.01 0.00 1190
6925760 436 -0.03 -0.02 0.00 0.00 0.00 1193
6930761 454 -0.01 0.01 -0.00 0.00 0.00 1190
6935761 473 0.01 0.02 -0.00 0.00 0.00 1157
6940761 447 -0.02 -0.01 0.01 0.01 0.00 1191
6945761 445 -0.02 -0.01 0.01 0.01 0.00 1192
6950761 469 0.00 0.02 -0.01 0.01 0.01 1155
6955761 456 -0.01 -0.00 0.00 0.00 0.00 1192
6960761 439 -0.03 -0.02 0.01 0.01 0.00 1190
6965761 465 -0.00 0.01 -0.00 0.00 0.00 1191
6970761 465 -0.00 0.01 -0.00 0.00 0.00 1190
6975761 442 -0.03 -0.02 0.01 0.01 0.00 1191
6980761 460 -0.01 0.01 -0.00 0.00 0.00 1190
6985761 477 0.01 0.02 -0.00 0.00 0.00 1156
6990761 452 -0.01 -0.01 0.01 0.01 0.00 1190
6995761 452 -0.01 -0.01 0.00 0.00 0.00 1192
7000761 481 0.02 0.02 -0.01 0.01 0.00 1155
7005761 467 0.00 -0.00 0.00 0.00 0.00 1157
7010761 453 -0.01 -0.02 0.01 0.01 0.00 1190
7015761 482 0.02 0.01 -0.00 0.00 0.00 1157
7020761 475 0.01 -0.00 -0.00 0.00 0.00 1189
7025761 447 -0.02 -0.02 0.00 0.00 0.00 1192
7030761 464 -0.00 0.00 -0.01 0.01 0.00 1189
7035761 481 0.02 0.02 -0.01 0.01 0.01 1157
7040761 460 -0.01 -0.01 0.01 0.01 0.01 1190
7045761 455 -0.01 -0.01 0.01 0.01 0.01 1192
7050761 478 0.01 0.02 -0.01 0.01 0.01 1154
7055761 463 -0.00 -0.00 -0.00 0.00 0.01 1227
7060761 446 -0.02 -0.01 0.00 0.00 0.00 1190
7065761 474 0.01 0.02 -0.00 0.00 0.00 1157
7070761 478 0.01 0.01 0.00 0.00 0.00 1119
7075762 451 -0.02 -0.02 0.01 0.01 0.01 1192
7080762 469 0.00 0.01 0.00 0.00 0.00 1119
7085761 487 0.02 0.02 -0.00 0.00 0.00 1157
7090762 464 -0.00 -0.01 0.01 0.01 0.00 1190
7095762 464 -0.00 -0.01 0.00 0.00 0.00 1192
7100762 491 0.03 0.02 -0.01 0.01 0.00 1154
7105762 470 0.00 -0.01 -0.00 0.00 0.00 1192
7110762 448 -0.02 -0.02 -0.00 0.00 0.00 1225
7115762 475 0.01 0.01 -0.01 0.01 0.00 1157
7120762 477 0.01 0.01 -0.01 0.01 0.01 1155
7125762 451 -0.02 -0.02 0.01 0.01 0.01 1192
7130762 465 -0.00 0.00 0.00 0.00 0.00 1154
7135762 477 0.01 0.01 -0.00 0.00 0.01 1157
7140762 448 -0.02 -0.02 0.00 0.00 0.00 1190
7145762 447 -0.02 -0.01 0.00 0.00 0.00 1193
7150762 477 0.01 0.02 -0.01 0.01 0.00 1154
7155762 462 -0.00 0.00 0.01 0.01 0.00 1157
7160762 447 -0.02 -0.01 0.01 0.01 0.01 1190
7165762 476 0.01 0.02 0.00 0.00 0.00 1121
7170762 474 0.01 0.01 0.00 0.00 0.00 1119
7175762 443 -0.02 -0.02 0.01 0.01 0.00 1192
7180762 459 -0.01 0.00 -0.01 0.01 0.00 1190
7185762 478 0.01 0.02 -0.01 0.01 0.01 1157
7190762 450 -0.02 -0.02 0.00 0.00 0.01 1190
7195762 450 -0.02 -0.01 0.00 0.00 0.01 1192
7200762 480 0.02 0.02 -0.01 0.01 0.01 1155
7205762 461 -0.00 -0.01 0.00 0.00 0.01 1192
7210762 440 -0.03 -0.02 0.01 0.01 0.00 1190
7215762 469 0.00 0.01 -0.01 0.01 0.01 1157
7220762 468 0.00 0.01 -0.00 0.00 0.01 1154
7225762 435 -0.03 -0.02 0.01 0.01 0.01 1193
7230762 456 -0.01 0.01 -0.00 0.00 0.01 1189
7235762 474 0.01 0.02 -0.01 0.01 0.00 1157
7240762 446 -0.02 -0.01 0.01 0.01 0.01 1190
7245762 446 -0.02 -0.01 0.01 0.01 0.01 1192
7250763 476 0.01 0.02 -0.00 0.00 0.01 1154
7255763 459 -0.01 -0.00 0.00 0.00 0.01 1192
7260763 440 -0.03 -0.02 0.01 0.01 0.01 1190
7265763 470 0.00 0.02 -0.01 0.01 0.01 1157
7270763 469 0.00 0.01 -0.00 0.00 0.01 1154
7275763 444 -0.02 -0.02 0.01 0.01 0.01 1192
7280763 462 -0.00 0.00 -0.00 0.00 0.01 1189
7285763 481 0.02 0.02 -0.01 0.01 0.01 1157
7290763 455 -0.01 -0.01 0.01 0.01 0.00 1190
7295763 455 -0.01 -0.01 0.00 0.00 0.00 1192
7300763 484 0.02 0.02 -0.01 0.01 0.00 1155
7305763 466 0.00 -0.01 0.00 0.00 0.00 1156
7310763 450 -0.02 -0.02 0.00 0.00 0.00 1190
7315763 479 0.01 0.01 -0.01 0.01 0.00 1157
7320763 481 0.02 0.01 -0.00 0.00 0.00 1154
7325763 454 -0.01 -0.02 0.01 0.01 0.00 1193
7330763 472 0.01 0.00 -0.00 0.00 0.00 1154
7335763 492 0.03 0.02 -0.01 0.01 0.00 1157
7340763 464 -0.00 -0.02 0.01 0.01 0.00 1190
7345763 463 -0.00 -0.01 0.00 0.00 0.00 1192
7350763 491 0.03 0.02 -0.01 0.01 0.00 1154
7355763 474 0.01 -0.01 -0.00 0.00 0.00 1192
7360763 458 -0.01 -0.02 0.00 0.00 0.00 1190
7365763 485 0.02 0.01 -0.01 0.01 0.00 1157
7370763 485 0.02 0.01 -0.00 0.00 0.00 1154
7375763 460 -0.01 -0.02 0.01 0.01 0.00 1192
7380763 475 0.01 0.00 -0.00 0.00 0.00 1154
7385763 492 0.03 0.02 -0.00 0.00 0.00 1157
7390763 465 -0.00 -0.01 0.01 0.01 0.00 1190
7395763 464 -0.00 -0.01 0.00 0.00 0.00 1192
7400764 489 0.03 0.02 -0.01 0.01 0.00 1154
7405763 470 0.00 -0.01 0.00 0.00 0.00 1156
7410763 453 -0.01 -0.02 0.00 0.00 0.00 1190
7415764 481 0.02 0.02 -0.01 0.01 0.00 1157
7420764 479 0.01 0.01 -0.00 0.00 0.00 1154
7425764 450 -0.02 -0.02 0.01 0.01 0.00 1192
7430764 467 0.00 0.01 -0.00 0.00 0.00 1154
7435764 484 0.02 0.02 -0.00 0.00 0.00 1157
7440764 458 -0.01 -0.01 0.01 0.01 0.00 1190
7445764 458 -0.01 -0.01 0.01 0.01 0.00 1192
7450764 482 0.02 0.02 -0.00 0.00 0.00 1154
7455764 468 0.00 -0.00 0.00 0.00 0.00 1156
7460764 450 -0.02 -0.02 0.01 0.01 0.00 1190
7465764 473 0.01 0.01 -0.01 0.01 0.00 1157
7470764 471 0.01 0.00 -0.00 0.00 0.00 1154
7475764 448 -0.02 -0.02 0.00 0.00 0.00 1192
7480764 467 0.00 0.01 -0.00 0.00 0.00 1154
7485764 481 0.02 0.02 -0.00 0.00 0.00 1157
7490764 450 -0.02 -0.02 0.01 0.01 0.00 1190
7495764 449 -0.02 -0.01 -0.00 0.00 0.00 1227
7500764 477 0.01 0.02 -0.01 0.01 0.00 1154
7505764 461 -0.00 -0.00 0.00 0.00 0.00 1192
7510764 446 -0.02 -0.01 0.01 0.01 0.00 1190
7515764 474 0.01 0.02 -0.00 0.00 0.00 1157
7520764 475 0.01 0.01 0.00 0.00 0.00 1119
7525764 449 -0.02 -0.02 0.01 0.01 0.00 1192
7530764 463 -0.00 0.00 -0.00 0.00 0.00 1189
7535764 477 0.01 0.01 -0.01 0.01 0.00 1156
7540764 449 -0.02 -0.02 0.00 0.00 0.00 1190
7545764 452 -0.01 -0.01 -0.00 0.00 0.00 1227
7550764 476 0.01 0.02 -0.01 0.01 0.00 1154
7555764 460 -0.01 -0.00 0.00 0.00 0.00 1192
7560764 443 -0.02 -0.02 0.01 0.01 0.00 1190
7565764 472 0.01 0.02 -0.01 0.01 0.00 1157
7570764 468 0.00 0.01 -0.00 0.00 0.00 1154
7575765 444 -0.02 -0.02 0.01 0.01 0.00 1192
7580765 465 -0.00 0.01 -0.00 0.00 0.00 1189
7585765 480 0.02 0.02 -0.00 0.00 0.00 1157
7590765 453 -0.01 -0.01 0.01 0.01 0.00 1189
7595765 453 -0.01 -0.01 0.00 0.00 0.00 1192
7600765 480 0.02 0.02 -0.01 0.01 0.00 1155
7605765 466 0.00 -0.00 0.00 0.00 0.00 1156
7610765 449 -0.02 -0.02 0.01 0.01 0.00 1190
7615765 478 0.01 0.01 -0.01 0.01 0.00 1157
7620765 476 0.01 0.00 -0.00 0.00 0.00 1154
7625765 448 -0.02 -0.02 0.01 0.01 0.00 1193
7630765 468 0.00 0.01 -0.00 0.00 0.00 1154
7635765 484 0.02 0.02 -0.01 0.01 0.00 1157
7640765 456 -0.01 -0.02 0.01 0.01 0.00 1190
7645765 458 -0.01 -0.01 0.00 0.00 0.00 1192
7650765 484 0.02 0.02 -0.01 0.01 0.00 1155
7655765 464 -0.00 -0.01 0.00 0.00 0.00 1192
7660765 448 -0.02 -0.02 0.00 0.00 0.00 1190
7665765 482 0.02 0.02 -0.01 0.01 0.00 1157
7670765 480 0.02 0.01 0.00 0.00 0.00 1119
7675765 451 -0.02 -0.02 0.01 0.01 0.00 1192
7680765 468 0.00 0.00 -0.00 0.00 0.00 1154
7685765 481 0.02 0.01 -0.01 0.01 0.00 1157
7690765 456 -0.01 -0.01 0.00 0.00 0.00 1190
7695765 458 -0.01 -0.01 0.00 0.00 0.00 1192
7700765 487 0.02 0.02 -0.00 0.00 0.00 1155
7705765 467 0.00 -0.01 0.00 0.00 0.00 1157
7710765 452 -0.01 -0.02 0.01 0.01 0.00 1190
7715765 478 0.01 0.01 -0.01 0.01 0.00 1157
7720765 475 0.01 0.00 -0.00 0.00 0.01 1154
7725766 444 -0.02 -0.02 0.00 0.00 0.00 1192
7730766 461 -0.00 0.00 -0.01 0.01 0.00 1189
7735766 478 0.01 0.02 -0.01 0.01 0.00 1157
7740766 447 -0.02 -0.02 0.01 0.01 0.01 1190
7745766 449 -0.02 -0.00 0.00 0.00 0.01 1192
7750766 475 0.01 0.02 -0.01 0.01 0.01 1154
7755766 455 -0.01 -0.00 0.00 0.00 0.01 1192
7760766 437 -0.03 -0.02 0.01 0.01 0.01 1190
7765766 465 -0.00 0.02 -0.01 0.01 0.01 1192
7770766 464 -0.00 0.01 -0.00 0.00 0.00 1190
7775766 433 -0.03 -0.02 0.01 0.01 0.01 1193
7780766 453 -0.01 0.01 -0.00 0.00 0.00 1189
7785766 473 0.01 0.02 -0.00 0.00 0.00 1157
7790766 446 -0.02 -0.01 0.01 0.01 0.00 1190
7795766 446 -0.02 -0.01 0.01 0.01 0.01 1193
7800766 474 0.01 0.02 -0.01 0.01 0.01 1154
7805766 456 -0.01 -0.01 0.00 0.00 0.00 1192
7810766 442 -0.03 -0.02 0.00 0.00 0.00 1190
7815766 467 0.00 0.01 -0.01 0.01 0.00 1156
7820766 466 0.00 0.00 -0.00 0.00 0.01 1154
7825766 434 -0.03 -0.03 0.00 0.00 0.00 1192
7830766 453 -0.01 0.00 -0.01 0.01 0.01 1190
7835766 473 0.01 0.02 -0.01 0.01 0.01 1157
7840766 443 -0.02 -0.01 0.01 0.01 0.01 1190
7845766 444 -0.02 -0.01 0.00 0.00 0.01 1192
7850766 481 0.02 0.03 -0.00 0.00 0.00 1154
7855766 465 -0.00 0.00 0.01 0.01 0.01 1157
7860766 451 -0.02 -0.01 0.01 0.01 0.01 1190
7865766 479 0.01 0.01 -0.00 0.00 0.01 1156
7870766 478 0.01 0.00 -0.00 0.00 0.01 1154
7875766 453 -0.01 -0.02 0.00 0.00 0.01 1193
7880766 471 0.01 0.00 -0.01 0.01 0.01 1154
7885766 486 0.02 0.01 -0.01 0.01 0.01 1157
7890766 458 -0.01 -0.02 0.00 0.00 0.01 1189
7895767 458 -0.01 -0.01 -0.00 0.00 0.01 1227
7900767 482 0.02 0.01 -0.01 0.01 0.01 1154
7905767 463 -0.00 -0.01 -0.00 0.00 0.01 1227
7910767 448 -0.02 -0.01 0.00 0.00 0.00 1190
7915767 475 0.01 0.02 -0.01 0.01 0.00 1157
7920767 476 0.01 0.01 0.00 0.00 0.00 1119
7925767 449 -0.02 -0.02 0.01 0.01 0.00 1192
7930767 469 0.00 0.01 0.00 0.00 0.00 1119
7935767 486 0.02 0.02 -0.00 0.00 0.00 1157
7940767 455 -0.01 -0.02 0.01 0.01 0.00 1190
7945767 456 -0.01 -0.01 0.00 0.00 0.00 1192
7950767 483 0.02 0.02 -0.01 0.01 0.00 1154
7955767 465 -0.00 -0.01 0.00 0.00 0.00 1192
7960767 451 -0.02 -0.01 0.01 0.01 0.00 1190
7965767 479 0.01 0.02 -0.00 0.00 0.00 1157
7970767 475 0.01 0.00 -0.00 0.00 0.00 1154
7975767 449 -0.02 -0.02 0.01 0.01 0.00 1192
7980767 469 0.00 0.01 -0.00 0.00 0.00 1154
7985767 486 0.02 0.02 -0.00 0.00 0.00 1157
7990767 459 -0.01 -0.01 0.01 0.01 0.00 1190
7995767 459 -0.01 -0.01 0.00 0.00 0.00 1192
8000767 482 0.02 0.01 -0.01 0.01 0.00 1154
8005767 463 -0.00 -0.01 -0.00 0.00 0.00 1227
8010767 447 -0.02 -0.02 0.00 0.00 0.00 1190
8015767 475 0.01 0.02 -0.01 0.01 0.00 1157
8020767 475 0.01 0.01 -0.00 0.00 0.00 1154
8025767 450 -0.02 -0.02 0.01 0.01 0.00 1192
8030767 469 0.00 0.01 0.00 0.00 0.00 1119
8035767 483 0.02 0.02 -0.00 0.00 0.00 1157
8040767 450 -0.02 -0.02 0.01 0.01 0.00 1190
8045768 456 -0.01 -0.00 -0.00 0.00 0.00 1227
8050768 483 0.02 0.02 -0.01 0.01 0.00 1155
8055768 463 -0.00 -0.01 0.00 0.00 0.00 1192
8060768 449 -0.02 -0.01 0.01 0.01 0.00 1190
8065768 477 0.01 0.02 -0.01 0.01 0.00 1156
8070768 478 0.01 0.01 -0.00 0.00 0.00 1154
8075768 454 -0.01 -0.02 0.01 0.01 0.00 1192
8080768 473 0.01 0.01 0.00 0.00 0.00 1119
8085768 483 0.02 0.01 -0.00 0.00 0.00 1156
8090768 458 -0.01 -0.02 0.00 0.00 0.00 1190
8095768 457 -0.01 -0.01 -0.00 0.00 0.00 1227
8100768 486 0.02 0.02 -0.01 0.01 0.00 1154
8105768 472 0.01 -0.00 0.00 0.00 0.00 1157
8110768 456 -0.01 -0.01 0.01 0.01 0.00 1190
8115768 484 0.02 0.02 -0.00 0.00 0.00 1157
8120768 481 0.02 0.00 -0.00 0.00 0.00 1154
8125768 451 -0.02 -0.02 0.00 0.00 0.00 1192
8130768 470 0.00 0.00 -0.01 0.01 0.00 1154
8135768 482 0.02 0.01 -0.01 0.01 0.00 1157
8140768 456 -0.01 -0.01 0.00 0.00 0.00 1189
8145768 461 -0.00 -0.00 0.00 0.00 0.00 1192
8150768 488 0.02 0.02 -0.00 0.00 0.00 1155
8155768 472 0.01 -0.00 0.01 0.01 0.00 1156
8160768 458 -0.01 -0.01 0.01 0.01 0.00 1189
8165768 484 0.02 0.01 -0.00 0.00 0.00 1156
8170768 479 0.01 0.00 -0.00 0.00 0.00 1154
8175768 453 -0.01 -0.02 0.00 0.00 0.00 1192
8180768 471 0.01 0.00 -0.01 0.01 0.00 1154
8185768 483 0.02 0.01 -0.01 0.01 0.00 1156
8190768 455 -0.01 -0.02 0.00 0.00 0.00 1190
8195768 458 -0.01 -0.01 0.00 0.00 0.00 1192
8200768 485 0.02 0.02 -0.01 0.01 0.00 1154
8205768 468 0.00 -0.00 0.00 0.00 0.00 1157
8210768 449 -0.02 -0.02 0.01 0.01 0.00 1190
8215769 479 0.01 0.02 -0.00 0.00 0.00 1157
8220769 477 0.01 0.01 -0.00 0.00 0.00 1154
8225769 452 -0.01 -0.02 0.01 0.01 0.01 1192
8230769 471 0.01 0.01 -0.00 0.00 0.00 1154
8235769 483 0.02 0.01 -0.00 0.00 0.00 1157
8240769 455 -0.01 -0.02 0.00 0.00 0.00 1189
8245769 459 -0.01 -0.01 -0.00 0.00 0.00 1227
8250769 483 0.02 0.02 -0.01 0.01 0.00 1154
8255769 464 -0.00 -0.01 0.00 0.00 0.00 1192
8260769 447 -0.02 -0.02 0.00 0.00 0.00 1190
8265769 477 0.01 0.02 -0.01 0.01 0.00 1157
8270769 473 0.01 0.01 -0.00 0.00 0.00 1154
8275769 443 -0.02 -0.02 0.01 0.01 0.00 1192
8280769 464 -0.00 0.01 -0.00 0.00 0.00 1190
8285769 479 0.01 0.02 -0.01 0.01 0.00 1157
8290769 450 -0.02 -0.01 0.01 0.01 0.00 1190
8295769 457 -0.01 -0.00 0.00 0.00 0.00 1192
8300769 480 0.02 0.02 -0.00 0.00 0.00 1154
8305769 459 -0.01 -0.01 0.00 0.00 0.00 1192
8310769 445 -0.02 -0.02 0.00 0.00 0.00 1189
8315769 471 0.01 0.01 -0.01 0.01 0.00 1157
8320769 466 0.00 0.00 -0.00 0.00 0.00 1154
8325769 444 -0.02 -0.02 0.01 0.01 0.00 1192
8330769 460 -0.01 0.01 -0.00 0.00 0.00 1190
8335769 477 0.01 0.02 -0.00 0.00 0.00 1157
8340769 445 -0.02 -0.02 0.01 0.01 0.00 1190
8345769 449 -0.02 -0.01 0.00 0.00 0.00 1193
8350769 481 0.02 0.02 -0.01 0.01 0.00 1155
8355769 459 -0.01 -0.01 0.00 0.00 0.00 1192
8360769 448 -0.02 -0.01 0.01 0.01 0.01 1190
8365769 478 0.01 0.02 -0.00 0.00 0.00 1157
8370770 473 0.01 0.00 -0.00 0.00 0.00 1154
8375770 444 -0.02 -0.02 0.01 0.01 0.00 1192
8380770 468 0.00 0.01 -0.01 0.01 0.00 1154
8385770 485 0.02 0.02 -0.01 0.01 0.01 1157
8390770 456 -0.01 -0.02 0.01 0.01 0.01 1190
8395770 459 -0.01 -0.01 0.00 0.00 0.01 1192
8400770 485 0.02 0.02 -0.01 0.01 0.01 1154
8405770 466 0.00 -0.01 0.00 0.00 0.00 1157
8410770 455 -0.01 -0.01 0.00 0.00 0.00 1190
8415770 486 0.02 0.02 -0.00 0.00 0.00 1157
8420770 484 0.02 0.01 0.00 0.00 0.00 1119
8425770 458 -0.01 -0.02 0.01 0.01 0.00 1192
8430770 475 0.01 0.00 -0.00 0.00 0.00 1154
8435770 490 0.03 0.01 -0.01 0.01 0.00 1157
8440770 461 -0.00 -0.02 0.00 0.00 0.00 1190
8445770 465 -0.00 -0.01 -0.00 0.00 0.00 1227
8450770 488 0.02 0.02 -0.01 0.01 0.00 1154
8455770 469 0.00 -0.01 0.00 0.00 0.00 1156
8460770 457 -0.01 -0.01 0.00 0.00 0.00 1190
8465770 481 0.02 0.01 -0.01 0.01 0.00 1157
8470770 480 0.02 0.01 -0.00 0.00 0.00 1154
8475770 453 -0.01 -0.02 0.01 0.01 0.00 1192
8480770 474 0.01 0.01 -0.00 0.00 0.00 1154
8485770 483 0.02 0.01 -0.00 0.00 0.00 1156
8490770 458 -0.01 -0.01 0.01 0.01 0.00 1190
8495770 460 -0.01 -0.00 0.00 0.00 0.00 1192
8500770 487 0.02 0.02 -0.01 0.01 0.00 1155
8505770 467 0.00 -0.01 0.00 0.00 0.00 1156
8510770 453 -0.01 -0.01 0.01 0.01 0.00 1190
8515770 483 0.02 0.02 -0.01 0.01 0.00 1157
8520770 480 0.02 0.01 -0.00 0.00 0.00 1154
8525771 456 -0.01 -0.02 0.01 0.01 0.00 1192
8530771 477 0.01 0.01 -0.00 0.00 0.00 1154
8535771 489 0.03 0.01 -0.00 0.00 0.00 1157
8540771 454 -0.01 -0.02 0.00 0.00 0.00 1190
8545771 460 -0.01 -0.01 -0.00 0.00 0.00 1227
8550771 488 0.02 0.02 -0.01 0.01 0.00 1154
8555771 469 0.00 -0.01 0.00 0.00 0.00 1157
8560771 457 -0.01 -0.01 0.01 0.01 0.00 1190
8565771 486 0.02 0.02 -0.00 0.00 0.00 1157
8570771 483 0.02 0.01 0.00 0.00 0.00 1119
8575771 457 -0.01 -0.02 0.01 0.01 0.00 1192
8580771 476 0.01 0.01 -0.00 0.00 0.00 1154
8585771 488 0.02 0.01 -0.01 0.01 0.00 1157
8590771 462 -0.00 -0.02 0.00 0.00 0.00 1190
8595771 466 0.00 -0.00 0.00 0.00 0.00 1157
8600771 490 0.03 0.02 -0.01 0.01 0.00 1155
8605771 467 0.00 -0.01 0.00 0.00 0.00 1157
8610771 455 -0.01 -0.01 0.00 0.00 0.00 1190
8615771 485 0.02 0.02 -0.01 0.01 0.00 1157
8620771 480 0.02 0.01 0.00 0.00 0.00 1119
8625771 454 -0.01 -0.02 0.01 0.01 0.00 1192
8630771 473 0.01 0.01 -0.00 0.00 0.00 1154
8635771 486 0.02 0.01 -0.01 0.01 0.00 1156
8640771 461 -0.00 -0.01 0.01 0.01 0.00 1190
8645771 466 0.00 -0.00 0.00 0.00 0.00 1157
8650771 487 0.02 0.02 -0.00 0.00 0.00 1154
8655771 471 0.01 -0.01 0.00 0.00 0.00 1157
8660771 458 -0.01 -0.01 0.00 0.00 0.00 1190
8665771 485 0.02 0.01 -0.01 0.01 0.00 1157
8670771 479 0.01 0.00 -0.00 0.00 0.00 1155
8675771 451 -0.02 -0.02 0.00 0.00 0.00 1192
8680771 470 0.00 0.00 -0.01 0.01 0.00 1154
8685772 481 0.02 0.01 -0.01 0.01 0.00 1157
8690771 451 -0.02 -0.02 0.00 0.00 0.00 1190
8695772 459 -0.01 -0.00 0.00 0.00 0.00 1192
8700772 483 0.02 0.02 -0.00 0.00 0.00 1154
8705772 465 -0.00 -0.00 0.01 0.01 0.00 1192
8710772 446 -0.02 -0.02 0.01 0.01 0.00 1190
8715772 473 0.01 0.01 -0.01 0.01 0.00 1157
8720772 470 0.00 0.01 -0.00 0.00 0.01 1154
8725772 446 -0.02 -0.02 0.01 0.01 0.01 1192
8730772 470 0.00 0.01 0.00 0.00 0.00 1119
8735772 480 0.02 0.01 -0.00 0.00 0.00 1157
8740772 449 -0.02 -0.02 0.01 0.01 0.00 1190
8745772 455 -0.01 -0.01 -0.00 0.00 0.00 1228
8750772 482 0.02 0.02 -0.01 0.01 0.00 1154
8755772 460 -0.01 -0.01 0.00 0.00 0.00 1192
8760772 448 -0.02 -0.01 0.01 0.01 0.00 1190
8765772 475 0.01 0.01 -0.01 0.01 0.00 1157
8770772 469 0.00 0.00 -0.00 0.00 0.00 1154
8775772 445 -0.02 -0.02 0.01 0.01 0.00 1192
8780772 464 -0.00 0.01 -0.00 0.00 0.00 1190
8785772 479 0.01 0.02 -0.00 0.00 0.00 1157
8790772 448 -0.02 -0.02 0.01 0.01 0.00 1190
8795772 451 -0.02 -0.01 0.00 0.00 0.00 1192
8800772 477 0.01 0.02 -0.01 0.01 0.00 1154
8805772 458 -0.01 -0.01 0.00 0.00 0.00 1192
8810772 443 -0.02 -0.01 0.01 0.01 0.00 1190
8815772 473 0.01 0.02 -0.00 0.00 0.00 1157
8820772 467 0.00 0.00 -0.00 0.00 0.00 1154
8825772 441 -0.03 -0.02 0.01 0.01 0.00 1192
8830772 461 -0.00 0.01 -0.00 0.00 0.00 1189
8835772 474 0.01 0.01 -0.01 0.01 0.00 1157
8840772 446 -0.02 -0.02 0.01 0.01 0.00 1190
8845773 453 -0.01 -0.00 0.00 0.00 0.00 1192
8850773 479 0.01 0.02 -0.01 0.01 0.00 1154
8855773 458 -0.01 -0.01 0.00 0.00 0.00 1192
8860773 445 -0.02 -0.02 0.01 0.01 0.00 1190
8865773 474 0.01 0.02 -0.01 0.01 0.00 1157
8870773 470 0.00 0.00 -0.00 0.00 0.00 1154
8875773 445 -0.02 -0.02 0.01 0.01 0.00 1192
8880773 470 0.00 0.01 -0.00 0.00 0.00 1154
8885773 478 0.01 0.01 -0.00 0.00 0.00 1157
8890773 449 -0.02 -0.02 0.01 0.01 0.00 1190
8895773 454 -0.01 -0.01 -0.00 0.00 0.00 1227
8900773 480 0.02 0.02 -0.01 0.01 0.00 1154
8905773 462 -0.00 -0.01 0.00 0.00 0.00 1192
8910773 448 -0.02 -0.01 0.01 0.01 0.00 1190
8915773 477 0.01 0.02 -0.00 0.00 0.00 1157
8920773 471 0.01 0.00 -0.00 0.00 0.00 1154
8925773 445 -0.02 -0.02 0.01 0.01 0.00 1192
8930773 465 -0.00 0.01 -0.00 0.00 0.00 1190
8935773 479 0.01 0.02 -0.01 0.01 0.00 1157
8940773 451 -0.02 -0.02 0.01 0.01 0.00 1190
8945773 458 -0.01 -0.00 0.00 0.00 0.00 1192
8950773 484 0.02 0.02 -0.00 0.00 0.00 1154
8955773 468 0.00 -0.00 0.01 0.01 0.00 1157
8960773 450 -0.02 -0.02 0.01 0.01 0.00 1190
8965773 477 0.01 0.01 -0.01 0.01 0.00 1157
8970773 473 0.01 0.00 -0.00 0.00 0.01 1154
8975773 447 -0.02 -0.02 0.00 0.00 0.01 1192
8980773 465 -0.00 0.00 -0.00 0.00 0.01 1190
8985773 480 0.02 0.02 -0.01 0.01 0.01 1157
8990773 456 -0.01 -0.01 0.01 0.01 0.01 1190
8995773 462 -0.00 -0.00 0.00 0.00 0.01 1192
9000773 487 0.02 0.02 -0.00 0.00 0.01 1155
9005773 466 0.00 -0.01 0.00 0.00 0.01 1156
9010773 455 -0.01 -0.01 0.00 0.00 0.00 1190
9015774 481 0.02 0.01 -0.01 0.01 0.00 1157
9020774 477 0.01 0.00 -0.00 0.00 0.00 1154
9025774 456 -0.01 -0.02 0.01 0.01 0.00 1192
9030774 475 0.01 0.01 -0.00 0.00 0.00 1154
9035774 488 0.02 0.01 -0.00 0.00 0.00 1157
9040774 460 -0.01 -0.02 0.01 0.01 0.00 1190
9045774 464 -0.00 -0.01 -0.00 0.00 0.00 1227
9050774 485 0.02 0.01 -0.01 0.01 0.00 1154
9055774 465 -0.00 -0.01 0.00 0.00 0.00 1193
9060774 454 -0.01 -0.01 0.00 0.00 0.00 1190
9065774 482 0.02 0.02 -0.01 0.01 0.00 1157
9070774 478 0.01 0.01 0.00 0.00 0.00 1119
9075774 451 -0.02 -0.02 0.01 0.01 0.00 1192
9080774 471 0.01 0.01 -0.00 0.00 0.00 1154
9085774 482 0.02 0.01 -0.00 0.00 0.00 1156
9090774 461 -0.00 -0.01 0.01 0.01 0.00 1190
9095774 464 -0.00 -0.00 0.00 0.00 0.00 1192
9100774 489 0.03 0.02 -0.00 0.00 0.00 1154
9105774 470 0.00 -0.01 0.00 0.00 0.00 1156
9110774 456 -0.01 -0.02 0.00 0.00 0.00 1190
9115774 483 0.02 0.01 -0.01 0.01 0.00 1157
9120774 476 0.01 0.00 -0.00 0.00 0.00 1154
9125774 453 -0.01 -0.02 0.00 0.00 0.00 1192
9130774 471 0.01 0.01 -0.00 0.00 0.00 1154
9135774 480 0.02 0.01 -0.01 0.01 0.00 1157
9140774 453 -0.01 -0.02 0.00 0.00 0.00 1190
9145774 458 -0.01 -0.00 -0.00 0.00 0.00 1227
9150774 483 0.02 0.02 -0.01 0.01 0.00 1154
9155774 465 -0.00 -0.00 0.01 0.01 0.00 1192
9160775 456 -0.01 -0.01 0.01 0.01 0.00 1190
9165775 483 0.02 0.02 -0.00 0.00 0.00 1157
9170775 474 0.01 0.00 0.00 0.00 0.00 1119
9175775 453 -0.01 -0.02 0.01 0.01 0.00 1193
9180775 474 0.01 0.01 -0.00 0.00 0.00 1154
9185775 485 0.02 0.01 -0.00 0.00 0.00 1157
9190775 459 -0.01 -0.02 0.01 0.01 0.00 1190
9195775 466 0.00 -0.00 0.00 0.00 0.00 1157
9200775 487 0.02 0.02 -0.01 0.01 0.00 1154
9205775 464 -0.00 -0.01 0.00 0.00 0.00 1192
9210775 452 -0.01 -0.02 0.00 0.00 0.00 1190
9215775 478 0.01 0.01 -0.01 0.01 0.00 1156
9220775 473 0.01 0.00 -0.00 0.00 0.00 1154
9225775 451 -0.02 -0.02 0.01 0.01 0.00 1192
9230775 472 0.01 0.01 -0.00 0.00 0.00 1154
9235775 481 0.02 0.01 -0.00 0.00 0.00 1156
9240775 451 -0.02 -0.02 0.01 0.01 0.00 1190
9245775 457 -0.01 -0.00 -0.00 0.00 0.00 1227
9250775 484 0.02 0.02 -0.01 0.01 0.00 1155
9255775 459 -0.01 -0.01 0.00 0.00 0.00 1192
9260775 451 -0.02 -0.01 0.01 0.01 0.00 1190
9265775 483 0.02 0.02 -0.00 0.00 0.00 1157
9270775 478 0.01 0.01 0.00 0.00 0.00 1119
9275775 454 -0.01 -0.02 0.01 0.01 0.00 1192
9280775 469 0.00 0.00 -0.00 0.00 0.00 1154
9285775 484 0.02 0.01 -0.01 0.01 0.01 1157
9290775 456 -0.01 -0.02 0.00 0.00 0.00 1190
9295775 457 -0.01 -0.01 -0.00 0.00 0.00 1228
9300775 482 0.02 0.02 -0.01 0.01 0.01 1154
9305775 460 -0.01 -0.01 -0.00 0.00 0.00 1228
9310775 447 -0.02 -0.01 0.00 0.00 0.00 1190
9315776 473 0.01 0.02 -0.01 0.01 0.00 1157
9320776 469 0.00 0.01 -0.00 0.00 0.00 1154
9325775 441 -0.03 -0.02 0.01 0.01 0.00 1192
9330776 460 -0.01 0.01 -0.00 0.00 0.00 1190
9335776 472 0.01 0.02 -0.00 0.00 0.00 1157
9340776 445 -0.02 -0.01 0.01 0.01 0.00 1190
9345776 453 -0.01 0.00 0.00 0.00 0.00 1157
9350776 475 0.01 0.02 -0.00 0.00 0.00 1154
9355776 456 -0.01 -0.01 0.01 0.01 0.00 1192
9360776 442 -0.03 -0.01 0.01 0.01 0.00 1190
9365776 472 0.01 0.02 -0.01 0.01 0.00 1157
9370776 465 -0.00 0.00 -0.00 0.00 0.00 1190
9375776 442 -0.03 -0.02 0.01 0.01 0.00 1192
9380776 463 -0.00 0.01 -0.00 0.00 0.00 1190
9385776 475 0.01 0.01 -0.01 0.01 0.00 1157
9390776 447 -0.02 -0.02 0.01 0.01 0.00 1190
9395776 456 -0.01 -0.00 0.00 0.00 0.00 1192
9400776 484 0.02 0.02 -0.01 0.01 0.00 1155
9405776 454 -0.01 -0.02 0.00 0.00 0.00 1193
9410776 444 -0.02 -0.02 0.00 0.00 0.00 1190
9415776 473 0.01 0.02 -0.01 0.01 0.00 1157
9420776 466 0.00 0.00 -0.00 0.00 0.00 1155
9425776 445 -0.02 -0.02 0.01 0.01 0.00 1193
9430776 470 0.00 0.01 -0.00 0.00 0.00 1154
9435776 479 0.01 0.01 -0.00 0.00 0.00 1156
9440776 449 -0.02 -0.02 0.01 0.01 0.00 1190
9445776 461 -0.00 -0.00 0.00 0.00 0.00 1192
9450776 490 0.03 0.02 -0.01 0.01 0.00 1155
9455776 465 -0.00 -0.01 0.01 0.01 0.00 1192
9460776 450 -0.02 -0.02 0.01 0.01 0.00 1190
9465776 482 0.02 0.02 -0.01 0.01 0.00 1157
9470776 481 0.02 0.01 -0.00 0.00 0.00 1154
9475776 458 -0.01 -0.02 0.01 0.01 0.01 1192
9480776 478 0.01 0.01 -0.00 0.00 0.01 1154
9485776 492 0.03 0.01 -0.00 0.00 0.01 1157
9490777 464 -0.00 -0.02 0.00 0.00 0.01 1190
9495777 470 0.00 -0.01 -0.00 0.00 0.01 1192
9500777 495 0.03 0.02 -0.01 0.01 0.01 1154
9505777 472 0.01 -0.01 0.00 0.00 0.00 1157
9510777 457 -0.01 -0.02 0.00 0.00 0.00 1190
9515777 486 0.02 0.02 -0.01 0.01 0.00 1157
9520777 482 0.02 0.01 -0.00 0.00 0.00 1154
9525777 454 -0.01 -0.02 0.01 0.01 0.00 1193
9530777 475 0.01 0.01 -0.00 0.00 0.00 1154
9535777 483 0.02 0.01 -0.00 0.00 0.00 1157
9540777 459 -0.01 -0.01 0.01 0.01 0.00 1190
9545777 462 -0.00 -0.00 0.00 0.00 0.00 1192
9550777 490 0.03 0.02 -0.00 0.00 0.00 1154
9555777 470 0.00 -0.00 0.01 0.01 0.00 1157
9560777 455 -0.01 -0.01 0.01 0.01 0.01 1190
9565777 484 0.02 0.02 -0.01 0.01 0.00 1157
9570777 479 0.01 0.00 -0.00 0.00 0.00 1154
9575777 451 -0.02 -0.02 0.01 0.01 0.00 1192
9580777 471 0.01 0.01 -0.00 0.00 0.00 1154
9585777 481 0.02 0.01 -0.01 0.01 0.01 1157
9590777 453 -0.01 -0.02 0.00 0.00 0.00 1190
9595777 464 -0.00 0.00 0.00 0.00 0.00 1157
9600777 488 0.02 0.02 -0.00 0.00 0.00 1154
9605777 462 -0.00 -0.01 0.01 0.01 0.00 1192
9610777 451 -0.02 -0.01 0.00 0.00 0.00 1190
9615777 480 0.02 0.02 -0.01 0.01 0.00 1157
9620777 478 0.01 0.01 -0.00 0.00 0.00 1154
9625777 455 -0.01 -0.02 0.01 0.01 0.00 1192
9630777 478 0.01 0.01 0.00 0.00 0.00 1119
9635777 487 0.02 0.01 -0.00 0.00 0.00 1157
9640777 460 -0.01 -0.02 0.01 0.01 0.00 1190
9645777 467 0.00 -0.00 -0.00 0.00 0.00 1192
9650778 490 0.03 0.02 -0.01 0.01 0.00 1154
9655778 465 -0.00 -0.01 0.00 0.00 0.00 1192
9660778 454 -0.01 -0.02 0.00 0.00 0.00 1190
9665778 483 0.02 0.02 -0.01 0.01 0.00 1157
9670778 479 0.01 0.01 -0.00 0.00 0.00 1154
9675778 455 -0.01 -0.02 0.01 0.01 0.00 1192
9680778 470 0.00 0.00 -0.00 0.00 0.00 1154
9685778 476 0.01 0.01 -0.01 0.01 0.00 1157
9690778 445 -0.02 -0.02 0.00 0.00 0.00 1190
9695778 453 -0.01 -0.00 -0.00 0.00 0.00 1228
9700778 478 0.01 0.02 -0.01 0.01 0.00 1154
9705778 459 -0.01 -0.00 0.01 0.01 0.00 1192
9710778 449 -0.02 -0.01 0.01 0.01 0.01 1190
9715778 478 0.01 0.02 -0.00 0.00 0.00 1156
9720778 472 0.01 0.01 0.00 0.00 0.00 1119
9725778 452 -0.01 -0.01 0.01 0.01 0.00 1192
9730778 475 0.01 0.01 -0.00 0.00 0.00 1154
9735778 484 0.02 0.01 -0.00 0.00 0.00 1157
9740778 455 -0.01 -0.02 0.00 0.00 0.00 1190
9745778 465 -0.00 -0.00 -0.00 0.00 0.00 1227
9750778 487 0.02 0.01 -0.01 0.01 0.01 1155
9755778 464 -0.00 -0.01 0.00 0.00 0.00 1192
9760778 450 -0.02 -0.02 0.00 0.00 0.00 1190
9765778 476 0.01 0.01 -0.01 0.01 0.00 1157
9770778 469 0.00 0.00 -0.01 0.01 0.00 1154
9775778 444 -0.02 -0.02 0.00 0.00 0.00 1192
9780778 468 0.00 0.01 -0.00 0.00 0.00 1154
9785778 482 0.02 0.02 -0.00 0.00 0.00 1157
9790778 455 -0.01 -0.01 0.01 0.01 0.01 1190
9795778 463 -0.00 0.00 0.01 0.01 0.01 1156
9800779 488 0.02 0.02 -0.00 0.00 0.00 1155
9805778 469 0.00 -0.01 0.01 0.01 0.01 1157
9810779 458 -0.01 -0.01 0.01 0.01 0.01 1190
9815779 479 0.01 0.01 -0.01 0.01 0.01 1156
9820779 471 0.01 -0.00 -0.01 0.01 0.01 1189
9825779 450 -0.02 -0.02 -0.00 0.00 0.00 1228
9830779 471 0.01 0.01 -0.01 0.01 0.01 1154
9835779 481 0.02 0.01 -0.00 0.00 0.01 1157
9840779 452 -0.01 -0.02 0.01 0.01 0.01 1190
9845779 456 -0.01 -0.00 -0.00 0.00 0.00 1227
9850779 480 0.02 0.02 -0.01 0.01 0.00 1155
9855779 461 -0.00 -0.01 0.00 0.00 0.00 1193
9860779 457 -0.01 -0.01 0.01 0.01 0.00 1190
9865779 482 0.02 0.02 -0.00 0.00 0.00 1157
9870779 474 0.01 0.00 0.00 0.00 0.00 1119
9875779 449 -0.02 -0.02 0.01 0.01 0.00 1193
9880779 473 0.01 0.01 -0.01 0.01 0.00 1154
9885779 487 0.02 0.02 -0.00 0.00 0.00 1157
9890779 459 -0.01 -0.02 0.01 0.01 0.00 1190
9895779 462 -0.00 -0.01 0.00 0.00 0.00 1192
9900779 482 0.02 0.01 -0.01 0.01 0.01 1154
9905779 475 0.01 -0.00 -0.00 0.00 0.00 1192
9910779 502 0.04 0.02 0.01 0.01 0.01 1119
9915779 583 0.13 0.07 0.02 0.02 0.01 1122
9920779 674 0.22 0.09 0.06 0.06 0.01 1120
9925779 825 0.39 0.13 0.10 0.10 0.02 1122
9930779 960 0.53 0.12 0.13 0.13 0.03 1120
9935779 1000 0.57 0.01 0.11 0.11 0.04 1122
9940779 952 0.52 -0.13 0.02 0.02 0.05 1155
9945779 721 0.27 -0.34 -0.13 0.13 0.06 1193
9950779 742 0.30 -0.20 -0.27 0.27 0.09 1190
9955779 672 0.22 -0.17 -0.28 0.28 0.11 1193
9960779 431 -0.04 -0.26 -0.20 0.20 0.13 1226
9965780 235 -0.25 -0.22 -0.19 0.19 0.15 1228
9970779 149 -0.34 -0.06 -0.21 0.21 0.16 1226
9975780 92 -0.40 0.08 -0.10 0.10 0.16 1193
9980780 327 -0.15 0.39 0.11 0.11 0.16 1155
9985780 788 0.35 0.69 0.37 0.37 0.19 1122
9990780 772 0.33 0.38 0.58 0.58 0.24 1120
9995780 348 -0.13 -0.17 0.44 0.44 0.27 1194
10000780 177 -0.31 -0.26 -0.02 0.02 0.25 1226
10005780 557 0.10 0.16 -0.27 0.27 0.25 1158
10010780 816 0.38 0.26 -0.02 0.02 0.23 1155
10015780 621 0.17 -0.09 0.25 0.25 0.24 1159
10020780 374 -0.10 -0.32 0.07 0.07 0.22 1191
10025780 470 0.00 -0.13 -0.26 0.26 0.24 1193
10030780 563 0.10 -0.02 -0.27 0.27 0.26 1191
10035780 549 0.09 -0.04 -0.05 0.05 0.22 1193
10040780 243 -0.24 -0.28 -0.01 0.01 0.17 1226
10045780 145 -0.34 -0.19 -0.18 0.18 0.14 1228
10050780 441 -0.03 0.20 -0.21 0.21 0.16 1191
10055780 572 0.11 0.25 0.06 0.06 0.14 1122
10060780 302 -0.18 -0.06 0.25 0.25 0.16 1191
10065780 128 -0.36 -0.15 0.08 0.08 0.14 1193
10070780 251 -0.23 0.07 -0.13 0.13 0.15 1190
10075780 199 -0.29 0.04 -0.07 0.07 0.13 1193
10080780 322 -0.15 0.16 0.10 0.10 0.11 1155
10085780 610 0.16 0.33 0.19 0.19 0.13 1122
10090780 612 0.16 0.14 0.24 0.24 0.15 1120
10095780 753 0.31 0.12 0.22 0.22 0.16 1123
10100780 799 0.36 0.01 0.11 0.11 0.15 1120
10105780 271 -0.21 -0.52 -0.07 0.07 0.15 1228
10110780 222 -0.26 -0.36 -0.33 0.33 0.16 1226
10115781 487 0.02 0.03 -0.41 0.41 0.19 1158
10120780 424 -0.04 -0.02 -0.14 0.14 0.19 1226
10125781 348 -0.13 -0.05 0.07 0.07 0.19 1192
10130781 175 -0.31 -0.13 -0.00 0.00 0.18 1225
10135781 227 -0.26 0.03 -0.11 0.11 0.17 1193
10140781 405 -0.06 0.22 -0.02 0.02 0.15 1190
10145781 449 -0.02 0.19 0.18 0.18 0.14 1157
10150781 155 -0.33 -0.11 0.20 0.20 0.15 1191
10155781 277 -0.20 0.06 0.03 0.03 0.15 1158
10160781 736 0.29 0.42 0.01 0.01 0.12 1120
10165781 493 0.03 -0.01 0.21 0.21 0.10 1157
10170781 373 -0.10 -0.15 0.18 0.18 0.10 1190
10175781 521 0.06 -0.00 -0.08 0.08 0.10 1192
10180781 330 -0.15 -0.19 -0.17 0.17 0.12 1226
10185781 252 -0.23 -0.18 -0.12 0.12 0.12 1228
10190781 270 -0.21 -0.07 -0.14 0.14 0.13 1226
10195781 400 -0.07 0.09 -0.10 0.10 0.12 1193
10200781 487 0.02 0.13 0.05 0.05 0.11 1120
10205781 387 -0.08 -0.01 0.13 0.13 0.12 1193
10210781 533 0.07 0.11 0.08 0.08 0.13 1120
10215781 535 0.07 0.04 0.03 0.03 0.11 1122
10220781 261 -0.22 -0.22 0.01 0.01 0.09 1190
10225781 584 0.13 0.14 -0.06 0.06 0.09 1157
10230781 282 -0.20 -0.18 -0.07 0.07 0.08 1226
10235781 129 -0.36 -0.20 -0.07 0.07 0.07 1228
10240781 305 -0.17 0.07 -0.13 0.13 0.07 1190
10245781 486 0.02 0.22 -0.04 0.04 0.07 1157
10250781 825 0.39 0.39 0.22 0.22 0.08 1120
10255781 364 -0.11 -0.20 0.30 0.30 0.10 1193
10260781 109 -0.38 -0.34 0.00 0.00 0.09 1190
10265782 183 -0.30 -0.10 -0.32 0.32 0.12 1229
10270781 628 0.17 0.34 -0.20 0.20 0.14 1155
10275781 784 0.34 0.29 0.22 0.22 0.16 1123
10280781 491 0.03 -0.13 0.34 0.34 0.18 1155
10285781 341 -0.13 -0.23 0.03 0.03 0.18 1193
10290782 429 -0.04 -0.07 -0.25 0.25 0.19 1226
10295782 468 0.00 -0.01 -0.18 0.18 0.21 1192
10300782 331 -0.14 -0.11 -0.01 0.01 0.18 1225
10305782 130 -0.36 -0.20 -0.04 0.04 0.16 1229
10310782 149 -0.34 -0.04 -0.16 0.16 0.18 1226
10315782 313 -0.16 0.18 -0.09 0.09 0.15 1193
10320782 398 -0.07 0.21 0.13 0.13 0.15 1155
10325782 467 0.00 0.19 0.25 0.25 0.15 1122
10330782 689 0.24 0.27 0.23 0.23 0.14 1120
10335782 691 0.24 0.09 0.19 0.19 0.15 1122
10340782 421 -0.05 -0.24 0.09 0.09 0.14 1190
10345782 337 -0.14 -0.25 -0.14 0.14 0.13 1228
10350782 272 -0.21 -0.20 -0.29 0.29 0.16 1227
10355782 226 -0.26 -0.13 -0.24 0.24 0.18 1229
10360782 307 -0.17 0.03 -0.11 0.11 0.18 1190
10365782 399 -0.07 0.13 0.02 0.02 0.17 1158
10370782 426 -0.04 0.11 0.11 0.11 0.17 1155
10375782 385 -0.09 0.04 0.13 0.13 0.15 1158
10380782 414 -0.06 0.05 0.07 0.07 0.14 1155
10385782 420 -0.05 0.03 0.02 0.02 0.12 1157
10390782 408 -0.06 -0.00 0.02 0.02 0.11 1190
10395782 434 -0.03 0.01 0.01 0.01 0.10 1157
10400782 463 -0.00 0.01 0.00 0.00 0.07 1155
10405782 440 -0.03 -0.03 0.00 0.00 0.05 1193
10410782 436 -0.03 -0.03 -0.01 0.01 0.04 1226
10415782 476 0.01 0.00 -0.03 0.03 0.04 1157
10420782 479 0.01 -0.01 -0.02 0.02 0.03 1190
10425782 430 -0.04 -0.06 -0.01 0.01 0.02 1228
10430782 433 -0.03 -0.03 -0.03 0.03 0.02 1226
10435782 436 -0.03 -0.01 -0.04 0.04 0.02 1228
10440783 415 -0.05 -0.02 -0.02 0.02 0.02 1225
10445782 433 -0.03 0.01 -0.00 0.00 0.02 1193
10450783 461 -0.00 0.04 0.01 0.01 0.02 1155
10455783 445 -0.02 0.01 0.03 0.03 0.02 1158
10460783 442 -0.03 0.01 0.03 0.03 0.02 1155
10465783 472 0.01 0.03 0.01 0.01 0.02 1121
10470783 464 -0.00 0.01 0.01 0.01 0.02 1155
10475783 442 -0.03 -0.02 0.01 0.01 0.02 1193
10480783 464 -0.00 0.01 -0.00 0.00 0.02 1190
10485783 470 0.00 0.01 -0.01 0.01 0.01 1157
10490783 442 -0.03 -0.02 0.00 0.00 0.01 1190
10495783 453 -0.01 -0.00 -0.01 0.01 0.01 1228
10500783 475 0.01 0.01 -0.01 0.01 0.01 1155
10505783 456 -0.01 -0.01 0.00 0.00 0.01 1193
10510783 450 -0.02 -0.01 0.00 0.00 0.01 1190
10515783 480 0.02 0.02 -0.01 0.01 0.01 1157
10520783 472 0.01 0.00 0.00 0.00 0.01 1119
10525783 446 -0.02 -0.02 0.01 0.01 0.00 1193
10530783 472 0.01 0.01 -0.01 0.01 0.00 1154
10535783 483 0.02 0.01 -0.01 0.01 0.00 1157
10540783 455 -0.01 -0.02 0.01 0.01 0.01 1190
10545783 471 0.01 0.00 0.00 0.00 0.00 1121
10550783 499 0.04 0.02 -0.00 0.00 0.00 1155
10555783 480 0.02 -0.01 0.01 0.01 0.00 1157
10560783 477 0.01 -0.01 0.01 0.01 0.01 1155
10565783 503 0.04 0.01 -0.00 0.00 0.01 1157
10570783 488 0.02 -0.01 -0.00 0.00 0.01 1190
10575783 470 0.00 -0.02 -0.00 0.00 0.01 1192
10580783 500 0.04 0.01 -0.01 0.01 0.01 1155
10585783 510 0.05 0.01 -0.00 0.00 0.01 1157
10590783 486 0.02 -0.02 0.01 0.01 0.01 1155
10595783 498 0.03 -0.00 0.00 0.00 0.01 1158
10600783 521 0.06 0.02 -0.01 0.01 0.01 1155
10605783 504 0.04 -0.01 0.00 0.00 0.01 1158
10610784 500 0.04 -0.01 0.00 0.00 0.00 1154
10615784 530 0.07 0.02 -0.00 0.00 0.00 1157
10620784 524 0.06 0.00 0.00 0.00 0.00 1119
10625784 500 0.04 -0.02 0.01 0.01 0.01 1158
10630784 524 0.06 0.01 -0.01 0.01 0.00 1154
10635784 534 0.07 0.01 -0.01 0.01 0.01 1157
10640784 508 0.05 -0.02 0.00 0.00 0.00 1155
10645784 520 0.06 -0.00 -0.00 0.00 0.00 1192
10650784 539 0.08 0.02 -0.01 0.01 0.00 1155
10655784 510 0.05 -0.02 0.00 0.00 0.00 1157
10660784 505 0.04 -0.01 -0.00 0.00 0.00 1190
10665784 537 0.08 0.02 -0.01 0.01 0.00 1157
10670784 528 0.07 0.00 0.00 0.00 0.00 1119
10675784 508 0.05 -0.01 0.01 0.01 0.01 1157
10680784 530 0.07 0.01 0.00 0.00 0.00 1119
10685784 538 0.08 0.01 -0.00 0.00 0.00 1157
10690784 506 0.04 -0.02 0.01 0.01 0.00 1155
10695784 517 0.06 -0.00 -0.00 0.00 0.00 1192
10700784 540 0.08 0.02 -0.01 0.01 0.00 1154
10705784 515 0.05 -0.01 0.00 0.00 0.00 1157
10710784 511 0.05 -0.01 0.01 0.01 0.01 1155
10715784 533 0.07 0.01 -0.01 0.01 0.00 1157
10720784 523 0.06 -0.00 -0.00 0.00 0.00 1190
10725784 499 0.04 -0.02 0.00 0.00 0.00 1158
10730784 524 0.06 0.01 -0.01 0.01 0.00 1155
10735784 530 0.07 0.01 -0.00 0.00 0.00 1157
10740784 501 0.04 -0.02 0.01 0.01 0.00 1155
10745784 506 0.04 -0.00 0.00 0.00 0.00 1157
10750784 527 0.07 0.02 -0.01 0.01 0.00 1155
10755784 503 0.04 -0.01 0.00 0.00 0.00 1157
10760785 495 0.03 -0.01 0.00 0.00 0.00 1155
10765785 525 0.06 0.02 -0.00 0.00 0.00 1157
10770784 510 0.05 -0.00 0.00 0.00 0.00 1155
10775785 489 0.03 -0.02 0.01 0.01 0.00 1158
10780785 512 0.05 0.01 -0.00 0.00 0.00 1155
10785785 519 0.06 0.01 -0.00 0.00 0.00 1157
10790785 485 0.02 -0.02 0.01 0.01 0.00 1155
10795785 500 0.04 0.00 -0.00 0.00 0.00 1157
10800785 517 0.06 0.02 -0.01 0.01 0.00 1155
10805785 493 0.03 -0.01 0.00 0.00 0.00 1157
10810785 486 0.02 -0.01 0.00 0.00 0.00 1155
10815785 513 0.05 0.02 -0.01 0.01 0.00 1157
10820785 503 0.04 0.00 0.00 0.00 0.00 1119
10825785 482 0.02 -0.02 0.01 0.01 0.00 1157
10830785 500 0.04 0.01 -0.00 0.00 0.00 1155
10835785 504 0.04 0.01 -0.01 0.01 0.00 1157
10840785 478 0.01 -0.02 0.00 0.00 0.00 1155
10845785 488 0.02 0.00 -0.00 0.00 0.00 1157
10850785 508 0.05 0.02 -0.00 0.00 0.00 1155
10855785 486 0.02 -0.01 0.01 0.01 0.00 1157
10860785 484 0.02 -0.01 0.01 0.01 0.00 1155
10865785 511 0.05 0.02 -0.00 0.00 0.00 1157
10870785 502 0.04 0.00 0.00 0.00 0.00 1119
10875785 486 0.02 -0.01 0.01 0.01 0.00 1157
10880785 508 0.05 0.01 -0.00 0.00 0.00 1154
10885785 509 0.05 0.00 -0.00 0.00 0.00 1157
10890785 484 0.02 -0.02 0.00 0.00 0.00 1155
10895785 500 0.04 0.00 -0.01 0.01 0.00 1156
10900785 514 0.05 0.01 -0.01 0.01 0.00 1155
10905785 489 0.03 -0.02 0.00 0.00 0.00 1157
10910785 484 0.02 -0.01 -0.00 0.00 0.00 1190
10915785 507 0.04 0.01 -0.01 0.01 0.00 1157
10920785 498 0.03 0.00 -0.00 0.00 0.00 1155
10925786 481 0.02 -0.01 0.01 0.01 0.00 1157
10930786 506 0.04 0.02 -0.00 0.00 0.00 1155
10935786 513 0.05 0.01 0.00 0.00 0.00 1121
10940786 482 0.02 -0.02 0.01 0.01 0.00 1155
10945786 493 0.03 -0.00 -0.00 0.00 0.00 1193
10950786 516 0.05 0.02 -0.01 0.01 0.00 1155
10955786 490 0.03 -0.01 0.00 0.00 0.00 1157
10960786 482 0.02 -0.01 0.00 0.00 0.00 1155
10965786 511 0.05 0.02 -0.01 0.01 0.00 1157
10970786 500 0.04 0.00 -0.00 0.00 0.00 1154
10975786 479 0.01 -0.02 0.01 0.01 0.00 1157
10980786 505 0.04 0.01 -0.00 0.00 0.00 1155
10985786 508 0.05 0.01 -0.00 0.00 0.00 1157
10990786 473 0.01 -0.02 0.01 0.01 0.00 1155
10995786 481 0.02 -0.00 -0.01 0.01 0.00 1192
11000786 501 0.04 0.02 -0.01 0.01 0.01 1155
11005786 481 0.02 -0.01 0.00 0.00 0.00 1157
11010786 474 0.01 -0.01 0.01 0.01 0.01 1154
11015786 498 0.03 0.02 -0.00 0.00 0.00 1157
11020786 489 0.03 0.00 0.00 0.00 0.00 1119
11025786 467 0.00 -0.02 0.01 0.01 0.00 1157
11030786 490 0.03 0.01 -0.00 0.00 0.00 1155
11035786 494 0.03 0.01 -0.00 0.00 0.00 1157
11040786 469 0.00 -0.02 0.01 0.01 0.00 1155
11045786 481 0.02 0.00 0.00 0.00 0.00 1121
11050786 500 0.04 0.02 -0.00 0.00 0.00 1155
11055786 476 0.01 -0.01 0.00 0.00 0.00 1157
11060786 471 0.01 -0.01 0.00 0.00 0.00 1154
11065786 494 0.03 0.01 -0.01 0.01 0.00 1156
11070786 483 0.02 -0.00 -0.00 0.00 0.00 1190
11075786 458 -0.01 -0.02 0.00 0.00 0.00 1192
11080786 482 0.02 0.01 -0.01 0.01 0.00 1154
11085787 489 0.03 0.01 -0.01 0.01 0.00 1156
11090786 461 -0.00 -0.02 0.01 0.01 0.00 1190
11095787 468 0.00 -0.00 0.00 0.00 0.00 1157
11100787 489 0.03 0.02 -0.01 0.01 0.00 1155
11105787 465 -0.00 -0.01 0.00 0.00 0.00 1192
11110787 458 -0.01 -0.01 0.00 0.00 0.00 1189
11115787 489 0.03 0.02 -0.00 0.00 0.00 1157
11120787 474 0.01 -0.00 0.00 0.00 0.00 1154
11125787 455 -0.01 -0.02 0.01 0.01 0.01 1193
11130787 482 0.02 0.01 -0.00 0.00 0.00 1155
11135787 488 0.02 0.01 -0.00 0.00 0.00 1157
11140787 462 -0.00 -0.02 0.01 0.01 0.00 1190
11145787 473 0.01 -0.00 0.00 0.00 0.00 1157
11150787 495 0.03 0.02 -0.01 0.01 0.00 1155
11155787 471 0.01 -0.01 0.00 0.00 0.00 1157
11160787 464 -0.00 -0.01 0.00 0.00 0.00 1190
11165787 493 0.03 0.02 -0.01 0.01 0.00 1157
11170787 483 0.02 -0.00 -0.00 0.00 0.00 1190
11175787 453 -0.01 -0.03 0.00 0.00 0.00 1192
11180787 480 0.02 0.01 -0.01 0.01 0.00 1155
11185787 488 0.02 0.01 -0.01 0.01 0.01 1157
11190787 458 -0.01 -0.02 0.01 0.01 0.00 1190
11195787 471 0.01 0.00 0.00 0.00 0.01 1121
11200787 491 0.03 0.02 -0.00 0.00 0.00 1155
11205787 466 0.00 -0.01 0.01 0.01 0.01 1157
11210787 462 -0.00 -0.01 0.00 0.00 0.01 1190
11215787 490 0.03 0.02 -0.00 0.00 0.00 1157
11220787 478 0.01 0.00 0.00 0.00 0.01 1119
11225787 459 -0.01 -0.02 0.01 0.01 0.01 1192
11230787 487 0.02 0.01 -0.00 0.00 0.00 1155
11235787 492 0.03 0.01 -0.00 0.00 0.00 1157
11240787 461 -0.00 -0.02 0.01 0.01 0.00 1190
11245787 469 0.00 -0.01 -0.00 0.00 0.00 1192
11250787 488 0.02 0.01 -0.01 0.01 0.01 1154
11255788 463 -0.00 -0.01 -0.00 0.00 0.00 1227
11260788 456 -0.01 -0.01 0.00 0.00 0.00 1190
11265788 487 0.02 0.02 -0.01 0.01 0.00 1157
11270788 474 0.01 0.00 0.00 0.00 0.00 1119
11275788 455 -0.01 -0.01 0.01 0.01 0.00 1192
11280788 476 0.01 0.01 -0.00 0.00 0.00 1154
11285788 481 0.02 0.01 -0.00 0.00 0.00 1157
11290788 451 -0.02 -0.02 0.01 0.01 0.00 1191
11295788 465 -0.00 0.00 -0.00 0.00 0.00 1192
11300788 486 0.02 0.02 -0.01 0.01 0.00 1155
11305788 460 -0.01 -0.01 0.01 0.01 0.00 1192
11310788 455 -0.01 -0.01 0.00 0.00 0.00 1190
11315788 483 0.02 0.02 -0.01 0.01 0.00 1157
11320788 473 0.01 0.00 0.00 0.00 0.00 1119
11325788 451 -0.02 -0.02 0.01 0.01 0.00 1192
11330788 472 0.01 0.01 -0.00 0.00 0.00 1154
11335788 474 0.01 0.01 -0.01 0.01 0.00 1157
11340788 448 -0.02 -0.02 0.00 0.00 0.00 1190
11345788 461 -0.00 0.00 -0.00 0.00 0.00 1192
11350788 484 0.02 0.02 -0.00 0.00 0.00 1155
11355788 450 -0.02 -0.02 0.01 0.01 0.00 1193
11360788 448 -0.02 -0.01 0.00 0.00 0.00 1190
11365788 478 0.01 0.02 -0.01 0.01 0.00 1157
11370788 466 0.00 0.00 0.00 0.00 0.00 1119
11375788 447 -0.02 -0.01 0.01 0.01 0.00 1193
11380788 470 0.00 0.01 -0.00 0.00 0.00 1154
11385788 475 0.01 0.01 -0.00 0.00 0.00 1157
11390788 449 -0.02 -0.02 0.01 0.01 0.00 1190
11395788 458 -0.01 -0.00 -0.00 0.00 0.00 1228
11400788 477 0.01 0.01 -0.01 0.01 0.00 1154
11405788 455 -0.01 -0.01 0.00 0.00 0.00 1192
11410788 451 -0.02 -0.01 0.00 0.00 0.00 1190
11415789 476 0.01 0.02 -0.01 0.01 0.00 1156
11420789 464 -0.00 -0.00 0.00 0.00 0.00 1190
11425789 443 -0.02 -0.02 0.00 0.00 0.00 1192
11430789 471 0.01 0.01 -0.01 0.01 0.00 1154
11435789 479 0.01 0.01 -0.00 0.00 0.00 1157
11440789 448 -0.02 -0.02 0.01 0.01 0.00 1190
11445789 461 -0.00 0.00 0.00 0.00 0.00 1157
11450789 479 0.01 0.01 -0.01 0.01 0.00 1154
11455789 455 -0.01 -0.01 0.00 0.00 0.00 1192
11460789 448 -0.02 -0.01 0.00 0.00 0.00 1190
11465789 477 0.01 0.02 -0.01 0.01 0.00 1157
11470789 466 0.00 0.00 0.00 0.00 0.00 1119
11475789 444 -0.02 -0.02 0.01 0.01 0.00 1193
11480789 469 0.00 0.01 -0.00 0.00 0.00 1154
11485789 475 0.01 0.01 -0.00 0.00 0.00 1156
11490789 445 -0.02 -0.02 0.01 0.01 0.00 1190
11495789 459 -0.01 0.00 -0.00 0.00 0.00 1192
11500789 480 0.02 0.02 -0.01 0.01 0.00 1154
11505789 456 -0.01 -0.01 0.01 0.01 0.00 1192
11510789 452 -0.01 -0.01 0.00 0.00 0.00 1190
11515789 483 0.02 0.02 -0.01 0.01 0.00 1157
11520789 467 0.00 -0.00 0.00 0.00 0.00 1155
11525789 444 -0.02 -0.02 0.01 0.01 0.00 1192
11530789 467 0.00 0.01 -0.01 0.01 0.00 1154
11535789 472 0.01 0.01 -0.01 0.01 0.01 1157
11540789 447 -0.02 -0.02 0.00 0.00 0.00 1190
11545789 463 -0.00 0.01 0.00 0.00 0.01 1157
11550789 478 0.01 0.02 -0.00 0.00 0.00 1154
11555789 454 -0.01 -0.01 0.01 0.01 0.00 1192
11560789 450 -0.02 -0.01 0.00 0.00 0.00 1190
11565789 477 0.01 0.02 -0.01 0.01 0.00 1157
11570790 469 0.00 0.00 0.00 0.00 0.00 1119
11575790 449 -0.02 -0.02 0.01 0.01 0.01 1193
11580790 474 0.01 0.01 -0.00 0.00 0.00 1154
11585790 478 0.01 0.01 -0.00 0.00 0.00 1157
11590790 453 -0.01 -0.02 0.01 0.01 0.00 1190
11595790 463 -0.00 -0.00 -0.00 0.00 0.00 1227
11600790 481 0.02 0.01 -0.01 0.01 0.00 1154
11605790 457 -0.01 -0.01 0.00 0.00 0.00 1193
11610790 453 -0.01 -0.01 0.00 0.00 0.00 1190
11615790 480 0.02 0.02 -0.01 0.01 0.00 1157
11620790 468 0.00 -0.00 0.00 0.00 0.00 1155
11625790 446 -0.02 -0.02 0.01 0.01 0.00 1193
11630790 470 0.00 0.01 -0.01 0.01 0.00 1154
11635790 473 0.01 0.01 -0.00 0.00 0.00 1156
11640790 447 -0.02 -0.02 0.01 0.01 0.00 1190
11645790 460 -0.01 0.00 0.00 0.00 0.00 1157
11650790 482 0.02 0.02 -0.00 0.00 0.00 1154
11655790 456 -0.01 -0.01 0.01 0.01 0.00 1192
11660790 454 -0.01 -0.01 0.01 0.01 0.00 1190
11665790 487 0.02 0.02 -0.00 0.00 0.00 1157
11670790 467 0.00 -0.01 0.00 0.00 0.00 1154
11675790 438 -0.03 -0.03 0.00 0.00 0.00 1193
11680790 466 0.00 0.01 -0.01 0.01 0.01 1154
11685790 478 0.01 0.02 -0.01 0.01 0.01 1157
11690790 450 -0.02 -0.01 0.01 0.01 0.01 1190
11695790 482 0.02 0.02 0.01 0.01 0.01 1122
11700790 571 0.11 0.08 0.01 0.01 0.01 1119
11705790 616 0.16 0.06 0.05 0.05 0.01 1122
11710790 672 0.22 0.05 0.08 0.08 0.02 1120
11715790 882 0.45 0.15 0.08 0.08 0.03 1122
11720790 977 0.55 0.09 0.10 0.10 0.04 1120
11725790 1005 0.58 -0.02 0.10 0.10 0.05 1158
11730791 1013 0.59 -0.10 0.01 0.01 0.05 1155
11735791 963 0.53 -0.18 -0.11 0.11 0.06 1193
11740791 398 -0.07 -0.61 -0.25 0.25 0.08 1227
11745791 120 -0.37 -0.52 -0.46 0.46 0.13 1229
11750791 106 -0.39 -0.17 -0.54 0.54 0.18 1226
11755791 158 -0.33 0.12 -0.27 0.27 0.20 1194
11760791 341 -0.13 0.38 0.13 0.13 0.21 1156
11765791 309 -0.17 0.32 0.36 0.36 0.23 1158
11770791 156 -0.33 0.15 0.35 0.35 0.26 1155
11775791 277 -0.20 0.26 0.22 0.22 0.27 1158
11780791 398 -0.07 0.29 0.19 0.19 0.29 1156
11785791 617 0.16 0.33 0.28 0.28 0.31 1122
11790791 725 0.28 0.20 0.32 0.32 0.31 1120
11795791 682 0.23 -0.03 0.21 0.21 0.29 1158
11800791 551 0.09 -0.24 -0.01 0.01 0.23 1190
11805791 441 -0.03 -0.32 -0.22 0.22 0.23 1228
11810791 156 -0.33 -0.46 -0.36 0.36 0.25 1226
11815791 71 -0.42 -0.31 -0.40 0.40 0.26 1229
11820791 563 0.10 0.27 -0.27 0.27 0.25 1155
11825791 729 0.28 0.29 0.09 0.09 0.24 1122
11830791 244 -0.24 -0.25 0.28 0.28 0.24 1191
11835791 74 -0.42 -0.25 -0.00 0.00 0.22 1229
11840791 322 -0.15 0.12 -0.27 0.27 0.21 1191
11845791 617 0.16 0.34 -0.05 0.05 0.20 1157
11850791 373 -0.10 -0.01 0.28 0.28 0.22 1191
11855791 263 -0.22 -0.09 0.19 0.19 0.22 1193
11860791 251 -0.23 -0.04 -0.09 0.09 0.19 1226
11865791 343 -0.13 0.07 -0.12 0.12 0.16 1193
11870791 649 0.20 0.29 0.08 0.08 0.14 1119
11875791 590 0.13 0.07 0.22 0.22 0.16 1122
11880791 394 -0.08 -0.17 0.14 0.14 0.14 1191
11885791 361 -0.11 -0.15 -0.10 0.10 0.15 1228
11890792 304 -0.17 -0.14 -0.21 0.21 0.15 1226
11895792 241 -0.24 -0.12 -0.16 0.16 0.16 1228
11900792 351 -0.12 0.05 -0.07 0.07 0.14 1190
11905792 413 -0.06 0.10 0.01 0.01 0.12 1157
11910792 523 0.06 0.15 0.11 0.11 0.12 1120
11915792 536 0.08 0.08 0.14 0.14 0.12 1122
11920792 248 -0.23 -0.21 0.06 0.06 0.12 1191
11925792 146 -0.34 -0.19 -0.12 0.12 0.11 1229
11930792 530 0.07 0.24 -0.17 0.17 0.11 1155
11935792 833 0.39 0.37 0.09 0.09 0.11 1122
11940792 494 0.03 -0.13 0.30 0.30 0.12 1155
11945792 147 -0.34 -0.38 0.06 0.06 0.11 1193
11950792 251 -0.23 -0.11 -0.31 0.31 0.14 1226
11955792 633 0.18 0.27 -0.25 0.25 0.16 1158
11960792 485 0.02 0.02 0.12 0.12 0.16 1119
11965792 149 -0.34 -0.26 0.17 0.17 0.17 1193
11970792 206 -0.28 -0.06 -0.13 0.13 0.17 1226
11975792 394 -0.08 0.16 -0.19 0.19 0.18 1193
11980792 493 0.03 0.19 0.08 0.08 0.17 1119
11985792 499 0.04 0.11 0.24 0.24 0.19 1122
11990792 578 0.12 0.10 0.16 0.16 0.17 1119
11995792 413 -0.06 -0.11 0.03 0.03 0.17 1193
12000792 457 -0.01 -0.05 -0.05 0.05 0.14 1226
12005792 398 -0.07 -0.10 -0.09 0.09 0.13 1228
12010792 299 -0.18 -0.14 -0.10 0.10 0.12 1226
12015792 331 -0.14 -0.04 -0.10 0.10 0.12 1228
12020792 470 0.00 0.11 -0.05 0.05 0.11 1155
12025792 508 0.05 0.10 0.06 0.06 0.10 1122
12030792 310 -0.17 -0.11 0.10 0.10 0.10 1191
12035792 271 -0.21 -0.08 -0.02 0.02 0.08 1228
12040792 321 -0.16 0.02 -0.11 0.11 0.07 1190
12045792 414 -0.06 0.11 -0.02 0.02 0.07 1193
12050793 490 0.03 0.13 0.11 0.11 0.08 1119
12055793 464 -0.00 0.04 0.13 0.13 0.08 1157
12060793 358 -0.12 -0.08 0.05 0.05 0.08 1191
12065793 658 0.21 0.18 -0.02 0.02 0.07 1157
12070793 684 0.23 0.08 0.05 0.05 0.07 1120
12075793 246 -0.24 -0.36 0.06 0.06 0.07 1193
12080793 205 -0.28 -0.23 -0.17 0.17 0.07 1226
12085793 406 -0.06 0.06 -0.29 0.29 0.10 1193
12090793 401 -0.07 0.05 -0.08 0.08 0.10 1190
12095793 300 -0.18 -0.03 0.11 0.11 0.11 1193
12100793 280 -0.20 -0.00 0.05 0.05 0.10 1190
12105793 401 -0.07 0.13 -0.02 0.02 0.09 1193
12110793 429 -0.04 0.11 0.06 0.06 0.09 1155
12115793 381 -0.09 0.02 0.13 0.13 0.10 1157
12120793 393 -0.08 0.02 0.07 0.07 0.10 1155
12125793 402 -0.07 0.01 -0.00 0.00 0.10 1192
12130793 444 -0.02 0.03 -0.00 0.00 0.08 1190
12135793 474 0.01 0.02 0.03 0.03 0.06 1122
12140793 489 0.03 -0.00 0.02 0.02 0.05 1155
12145793 545 0.09 0.02 0.01 0.01 0.04 1122
12150793 573 0.12 -0.00 0.00 0.00 0.03 1155
12155793 463 -0.00 -0.12 -0.02 0.02 0.03 1228
12160793 382 -0.09 -0.15 -0.09 0.09 0.04 1226
12165793 418 -0.05 -0.05 -0.14 0.14 0.04 1228
12170793 438 -0.03 0.00 -0.09 0.09 0.04 1190
12175793 422 -0.05 0.00 -0.00 0.00 0.04 1193
12180793 442 -0.03 0.04 0.03 0.03 0.04 1155
12185793 445 -0.02 0.04 0.03 0.03 0.04 1158
12190793 429 -0.04 0.02 0.03 0.03 0.04 1155
12195793 451 -0.02 0.04 0.03 0.03 0.05 1157
12200793 477 0.01 0.05 0.04 0.04 0.05 1119
12205793 459 -0.01 0.01 0.04 0.04 0.05 1157
12210794 455 -0.01 -0.00 0.03 0.03 0.05 1190
12215794 482 0.02 0.02 0.00 0.00 0.03 1122
12220794 479 0.01 -0.00 0.00 0.00 0.02 1154
12225794 472 0.01 -0.01 0.00 0.00 0.02 1157
12230794 486 0.02 -0.00 -0.01 0.01 0.02 1190
12235794 484 0.02 -0.01 -0.01 0.01 0.02 1192
12240794 479 0.01 -0.02 -0.01 0.01 0.02 1190
12245794 478 0.01 -0.02 -0.01 0.01 0.02 1193
12250794 497 0.03 0.00 -0.01 0.01 0.01 1154
12255794 468 0.00 -0.02 -0.01 0.01 0.01 1192
12260794 471 0.01 -0.01 -0.01 0.01 0.01 1189
12265794 503 0.04 0.02 -0.01 0.01 0.01 1157
12270794 494 0.03 0.00 0.01 0.01 0.01 1119
12275794 475 0.01 -0.01 0.01 0.01 0.01 1157
12280794 499 0.04 0.01 -0.00 0.00 0.01 1155
12285794 500 0.04 0.01 -0.00 0.00 0.01 1156
12290794 466 0.00 -0.02 0.00 0.00 0.01 1155
12295794 479 0.01 0.00 -0.00 0.00 0.01 1157
12300794 496 0.03 0.02 -0.01 0.01 0.01 1155
12305794 474 0.01 -0.01 0.00 0.00 0.01 1157
12310794 469 0.00 -0.01 0.01 0.01 0.01 1155
12315794 498 0.03 0.02 -0.00 0.00 0.01 1157
12320794 494 0.03 0.01 0.01 0.01 0.01 1119
12325794 478 0.01 -0.01 0.01 0.01 0.01 1157
12330794 507 0.04 0.02 0.00 0.00 0.01 1119
12335794 515 0.05 0.01 0.00 0.00 0.01 1122
12340794 488 0.02 -0.02 0.01 0.01 0.01 1155
12345794 501 0.04 -0.00 -0.00 0.00 0.01 1192
12350794 520 0.06 0.01 -0.01 0.01 0.01 1155
12355794 499 0.04 -0.02 -0.00 0.00 0.01 1192
12360794 495 0.03 -0.01 -0.00 0.00 0.01 1190
12365795 523 0.06 0.01 -0.01 0.01 0.01 1157
12370795 510 0.05 -0.01 -0.00 0.00 0.01 1190
12375795 491 0.03 -0.02 0.00 0.00 0.01 1157
12380795 516 0.05 0.01 -0.01 0.01 0.01 1155
12385795 520 0.06 0.01 -0.00 0.00 0.01 1157
12390795 494 0.03 -0.02 0.01 0.01 0.01 1155
12395795 509 0.05 0.00 0.00 0.00 0.01 1121
12400795 532 0.07 0.02 -0.00 0.00 0.00 1155
12405795 505 0.04 -0.01 0.01 0.01 0.00 1157
12410795 503 0.04 -0.01 0.01 0.01 0.01 1155
12415795 530 0.07 0.02 -0.01 0.01 0.00 1157
12420795 515 0.05 -0.00 0.00 0.00 0.00 1154
12425795 499 0.04 -0.02 0.01 0.01 0.00 1157
12430795 524 0.06 0.01 -0.00 0.00 0.00 1154
12435795 526 0.07 0.01 -0.00 0.00 0.00 1157
12440795 501 0.04 -0.02 0.01 0.01 0.00 1154
12445795 512 0.05 0.00 -0.00 0.00 0.00 1157
12450795 532 0.07 0.02 -0.01 0.01 0.00 1154
12455795 503 0.04 -0.02 0.00 0.00 0.00 1157
12460795 497 0.03 -0.01 0.00 0.00 0.00 1155
12465795 525 0.06 0.02 -0.01 0.01 0.00 1157
12470795 514 0.05 0.00 0.00 0.00 0.00 1119
12475795 495 0.03 -0.01 0.01 0.01 0.00 1157
12480795 518 0.06 0.01 -0.00 0.00 0.00 1154
12485795 523 0.06 0.01 -0.00 0.00 0.00 1157
12490795 495 0.03 -0.02 0.01 0.01 0.00 1154
12495795 510 0.05 0.00 0.00 0.00 0.00 1121
12500795 527 0.07 0.02 -0.00 0.00 0.00 1154
12505795 500 0.04 -0.01 0.00 0.00 0.00 1157
12510795 493 0.03 -0.01 0.00 0.00 0.00 1155
12515795 515 0.05 0.01 -0.01 0.01 0.00 1157
12520796 501 0.04 -0.00 -0.00 0.00 0.00 1190
12525796 481 0.02 -0.02 0.00 0.00 0.00 1157
12530796 503 0.04 0.01 -0.00 0.00 0.00 1154
12535796 503 0.04 0.01 -0.00 0.00 0.00 1157
12540796 478 0.01 -0.01 0.01 0.01 0.00 1155
12545796 492 0.03 0.01 0.00 0.00 0.00 1121
12550796 512 0.05 0.02 -0.00 0.00 0.00 1155
12555796 488 0.02 -0.01 0.01 0.01 0.00 1157
12560796 486 0.02 -0.01 0.01 0.01 0.01 1155
12565796 511 0.05 0.02 -0.00 0.00 0.00 1157
12570796 497 0.03 -0.00 0.00 0.00 0.00 1154
12575796 481 0.02 -0.02 0.00 0.00 0.00 1157
12580796 506 0.04 0.01 -0.01 0.01 0.00 1154
12585796 508 0.05 0.01 -0.00 0.00 0.00 1157
12590796 479 0.01 -0.02 0.00 0.00 0.00 1155
12595796 491 0.03 -0.00 -0.01 0.01 0.00 1192
12600796 511 0.05 0.02 -0.01 0.01 0.01 1154
12605796 486 0.02 -0.01 0.00 0.00 0.00 1157
12610796 483 0.02 -0.01 0.00 0.00 0.00 1154
12615796 502 0.04 0.01 -0.01 0.01 0.00 1156
12620796 486 0.02 -0.01 -0.00 0.00 0.00 1190
12625796 469 0.00 -0.02 0.00 0.00 0.00 1157
12630796 498 0.03 0.02 -0.00 0.00 0.00 1155
12635796 501 0.04 0.01 0.00 0.00 0.00 1121
12640796 476 0.01 -0.01 0.01 0.01 0.01 1154
12645796 491 0.03 0.01 0.00 0.00 0.00 1121
12650796 507 0.04 0.02 -0.00 0.00 0.00 1154
12655796 483 0.02 -0.01 0.01 0.01 0.00 1157
12660796 480 0.02 -0.01 0.00 0.00 0.00 1154
12665796 508 0.05 0.02 -0.01 0.01 0.00 1157
12670796 492 0.03 -0.01 0.00 0.00 0.00 1154
12675796 474 0.01 -0.02 0.00 0.00 0.00 1157
12680796 500 0.04 0.01 -0.01 0.01 0.00 1154
12685796 503 0.04 0.01 -0.00 0.00 0.00 1157
12690797 475 0.01 -0.02 0.01 0.01 0.00 1154
12695797 487 0.02 0.00 -0.00 0.00 0.00 1157
12700797 507 0.04 0.02 -0.01 0.01 0.00 1155
12705797 482 0.02 -0.01 0.00 0.00 0.00 1157
12710797 480 0.02 -0.01 0.00 0.00 0.00 1155
12715797 502 0.04 0.02 -0.01 0.01 0.00 1157
12720797 484 0.02 -0.01 -0.00 0.00 0.00 1190
12725797 463 -0.00 -0.02 0.00 0.00 0.00 1193
12730797 491 0.03 0.02 -0.01 0.01 0.00 1154
12735797 489 0.03 0.01 -0.00 0.00 0.00 1157
12740797 465 -0.00 -0.01 0.01 0.01 0.00 1190
12745797 483 0.02 0.01 0.00 0.00 0.00 1121
12750797 503 0.04 0.02 0.00 0.00 0.00 1119
12755797 478 0.01 -0.01 0.01 0.01 0.00 1157
12760797 472 0.01 -0.01 0.01 0.01 0.00 1154
12765797 501 0.04 0.02 -0.01 0.01 0.00 1157
12770797 485 0.02 -0.01 -0.00 0.00 0.00 1190
12775797 466 0.00 -0.02 0.00 0.00 0.01 1157
12780797 491 0.03 0.01 -0.01 0.01 0.00 1154
12785797 494 0.03 0.01 -0.01 0.01 0.01 1157
12790797 466 0.00 -0.02 0.00 0.00 0.00 1154
12795797 481 0.02 0.00 -0.00 0.00 0.00 1157
12800797 494 0.03 0.01 -0.01 0.01 0.01 1154
12805797 462 -0.00 -0.02 0.00 0.00 0.00 1192
12810797 462 -0.00 -0.01 -0.00 0.00 0.00 1225
12815797 489 0.03 0.02 -0.01 0.01 0.00 1157
12820797 473 0.01 -0.00 0.00 0.00 0.00 1155
12825797 457 -0.01 -0.01 0.01 0.01 0.01 1192
12830797 482 0.02 0.02 -0.00 0.00 0.00 1154
12835797 483 0.02 0.01 0.00 0.00 0.00 1122
12840797 457 -0.01 -0.02 0.01 0.01 0.00 1190
12845798 469 0.00 0.00 -0.00 0.00 0.00 1157
12850798 490 0.03 0.02 -0.01 0.01 0.00 1154
12855798 467 0.00 -0.01 0.01 0.01 0.00 1157
12860798 464 -0.00 -0.01 0.00 0.00 0.00 1190
12865798 488 0.02 0.01 -0.01 0.01 0.00 1157
12870798 473 0.01 -0.01 -0.00 0.00 0.00 1190
12875798 454 -0.01 -0.02 0.00 0.00 0.00 1193
12880798 478 0.01 0.01 -0.01 0.01 0.00 1154
12885798 483 0.02 0.01 -0.00 0.00 0.00 1156
12890798 455 -0.01 -0.02 0.01 0.01 0.00 1190
12895798 471 0.01 0.00 -0.00 0.00 0.00 1157
12900798 488 0.02 0.02 -0.00 0.00 0.00 1155
12905798 459 -0.01 -0.02 0.00 0.00 0.00 1192
12910798 458 -0.01 -0.01 0.00 0.00 0.00 1190
12915798 485 0.02 0.02 -0.01 0.01 0.00 1157
12920798 475 0.01 0.00 0.00 0.00 0.00 1119
12925798 447 -0.02 -0.02 0.01 0.01 0.00 1193
12930798 477 0.01 0.01 -0.01 0.01 0.00 1154
12935798 477 0.01 0.01 -0.00 0.00 0.00 1157
12940798 450 -0.02 -0.02 0.01 0.01 0.00 1190
12945798 465 -0.00 0.00 -0.00 0.00 0.00 1192
12950798 483 0.02 0.02 -0.00 0.00 0.00 1155
12955798 453 -0.01 -0.02 0.01 0.01 0.00 1192
12960798 455 -0.01 -0.01 0.00 0.00 0.00 1190
12965798 484 0.02 0.02 -0.01 0.01 0.00 1157
12970798 471 0.01 -0.00 0.00 0.00 0.00 1155
12975798 452 -0.01 -0.02 0.01 0.01 0.00 1192
12980798 480 0.02 0.01 -0.00 0.00 0.00 1155
12985798 483 0.02 0.01 -0.00 0.00 0.00 1157
12990798 450 -0.02 -0.02 0.01 0.01 0.00 1190
12995798 466 0.00 0.00 -0.00 0.00 0.00 1157
13000799 487 0.02 0.02 -0.01 0.01 0.01 1154
13005799 463 -0.00 -0.01 0.00 0.00 0.01 1192
13010799 459 -0.01 -0.01 0.00 0.00 0.01 1190
13015799 484 0.02 0.02 -0.01 0.01 0.01 1157
13020799 465 -0.00 -0.01 -0.00 0.00 0.01 1225
13025799 447 -0.02 -0.02 0.00 0.00 0.00 1193
13030799 475 0.01 0.02 -0.01 0.01 0.00 1154
13035799 476 0.01 0.01 -0.00 0.00 0.00 1157
13040799 446 -0.02 -0.02 0.01 0.01 0.01 1190
13045799 462 -0.00 0.01 -0.00 0.00 0.00 1192
13050799 481 0.02 0.02 -0.00 0.00 0.00 1154
13055799 455 -0.01 -0.01 0.01 0.01 0.00 1192
13060799 454 -0.01 -0.01 0.01 0.01 0.00 1190
13065799 483 0.02 0.02 -0.00 0.00 0.00 1157
13070799 466 0.00 -0.00 0.00 0.00 0.00 1155
13075799 449 -0.02 -0.02 0.01 0.01 0.00 1192
13080799 476 0.01 0.01 -0.01 0.01 0.00 1154
13085799 478 0.01 0.01 -0.00 0.00 0.00 1157
13090799 451 -0.02 -0.02 0.01 0.01 0.00 1190
13095799 464 -0.00 0.00 -0.00 0.00 0.00 1192
13100799 479 0.01 0.01 -0.01 0.01 0.01 1154
13105799 455 -0.01 -0.01 0.00 0.00 0.00 1192
13110799 454 -0.01 -0.01 0.00 0.00 0.00 1190
13115799 482 0.02 0.02 -0.01 0.01 0.00 1157
13120799 465 -0.00 -0.00 0.00 0.00 0.00 1190
13125799 443 -0.02 -0.02 0.01 0.01 0.00 1192
13130799 467 0.00 0.01 -0.01 0.01 0.00 1154
13135799 470 0.00 0.01 -0.01 0.01 0.00 1157
13140799 447 -0.02 -0.01 0.01 0.01 0.00 1190
13145799 460 -0.01 0.01 0.00 0.00 0.00 1157
13150799 475 0.01 0.02 -0.00 0.00 0.00 1155
13155800 451 -0.02 -0.01 0.01 0.01 0.00 1192
13160800 448 -0.02 -0.01 0.00 0.00 0.00 1190
13165800 475 0.01 0.02 -0.01 0.01 0.00 1157
13170799 462 -0.00 -0.00 0.00 0.00 0.00 1190
13175800 443 -0.02 -0.02 0.01 0.01 0.00 1192
13180800 471 0.01 0.01 -0.00 0.00 0.00 1154
13185800 474 0.01 0.01 -0.00 0.00 0.00 1157
13190800 448 -0.02 -0.02 0.01 0.01 0.00 1190
13195800 462 -0.00 0.00 -0.00 0.00 0.00 1192
13200800 478 0.01 0.01 -0.01 0.01 0.00 1154
13205800 455 -0.01 -0.01 0.00 0.00 0.00 1192
13210800 451 -0.02 -0.01 0.00 0.00 0.00 1190
13215800 477 0.01 0.02 -0.01 0.01 0.00 1157
13220800 459 -0.01 -0.01 -0.00 0.00 0.00 1225
13225800 441 -0.03 -0.02 0.00 0.00 0.00 1193
13230800 471 0.01 0.02 -0.01 0.01 0.00 1154
13235800 470 0.00 0.01 -0.00 0.00 0.00 1157
13240800 445 -0.02 -0.02 0.01 0.01 0.00 1190
13245800 460 -0.01 0.00 0.00 0.00 0.00 1157
13250800 479 0.01 0.02 -0.00 0.00 0.00 1154
13255800 455 -0.01 -0.01 0.01 0.01 0.00 1192
13260800 454 -0.01 -0.01 0.00 0.00 0.00 1190
13265800 480 0.02 0.02 -0.01 0.01 0.00 1157
13270800 465 -0.00 -0.00 0.00 0.00 0.00 1190
13275800 449 -0.02 -0.02 0.00 0.00 0.00 1192
13280800 474 0.01 0.01 -0.01 0.01 0.00 1154
13285800 478 0.01 0.01 -0.00 0.00 0.00 1157
13290800 450 -0.02 -0.02 0.01 0.01 0.00 1191
13295800 464 -0.00 0.00 -0.00 0.00 0.00 1192
13300800 481 0.02 0.01 -0.01 0.01 0.00 1154
13305800 453 -0.01 -0.02 0.00 0.00 0.00 1192
13310800 451 -0.02 -0.01 0.00 0.00 0.00 1190
13315800 478 0.01 0.02 -0.01 0.01 0.00 1157
13320800 465 -0.00 -0.00 0.00 0.00 0.00 1190
13325801 449 -0.02 -0.01 0.01 0.01 0.00 1192
13330801 474 0.01 0.01 -0.00 0.00 0.00 1154
13335801 475 0.01 0.01 -0.00 0.00 0.00 1156
13340801 449 -0.02 -0.02 0.01 0.01 0.00 1190
13345801 466 0.00 0.00 -0.00 0.00 0.00 1156
13350801 482 0.02 0.02 -0.00 0.00 0.00 1155
13355801 455 -0.01 -0.02 0.01 0.01 0.00 1192
13360801 458 -0.01 -0.01 0.00 0.00 0.00 1190
13365801 484 0.02 0.02 -0.01 0.01 0.00 1157
13370801 466 0.00 -0.01 0.00 0.00 0.00 1155
13375801 447 -0.02 -0.02 0.00 0.00 0.00 1192
13380801 474 0.01 0.01 -0.01 0.01 0.00 1154
13385801 474 0.01 0.01 -0.00 0.00 0.00 1156
13390801 445 -0.02 -0.02 0.01 0.01 0.00 1190
13395801 462 -0.00 0.00 -0.00 0.00 0.00 1192
13400801 480 0.02 0.02 -0.01 0.01 0.00 1155
13405801 452 -0.01 -0.01 0.01 0.01 0.00 1192
13410801 449 -0.02 -0.01 0.00 0.00 0.00 1190
13415801 484 0.02 0.03 -0.01 0.01 0.00 1157
13420801 501 0.04 0.03 0.01 0.01 0.01 1119
13425801 526 0.07 0.03 0.03 0.03 0.01 1121
13430801 678 0.23 0.12 0.05 0.05 0.01 1119
13435801 876 0.44 0.19 0.10 0.10 0.02 1122
13440801 791 0.35 -0.03 0.14 0.14 0.04 1156
13445801 918 0.49 0.01 0.07 0.07 0.04 1122
13450801 988 0.56 -0.02 -0.03 0.03 0.04 1191
13455801 1008 0.58 -0.08 -0.04 0.04 0.05 1193
13460801 616 0.16 -0.43 -0.11 0.11 0.06 1190
13465801 304 -0.17 -0.49 -0.32 0.32 0.09 1229
13470801 178 -0.31 -0.30 -0.49 0.49 0.14 1226
13475801 56 -0.44 -0.13 -0.38 0.38 0.17 1229
13480801 79 -0.42 0.12 -0.11 0.11 0.18 1190
13485801 490 0.03 0.56 0.16 0.16 0.19 1122
13490802 801 0.36 0.65 0.46 0.46 0.22 1120
13495802 702 0.25 0.28 0.62 0.62 0.27 1122
13500802 408 -0.06 -0.11 0.39 0.39 0.31 1191
13505802 740 0.29 0.17 0.02 0.02 0.31 1122
13510802 404 -0.07 -0.24 -0.09 0.09 0.30 1226
13515802 150 -0.34 -0.37 -0.12 0.12 0.28 1228
13520802 300 -0.18 -0.07 -0.25 0.25 0.26 1226
13525802 106 -0.39 -0.17 -0.25 0.25 0.25 1229
13530802 257 -0.22 0.08 -0.08 0.08 0.24 1191
13535802 375 -0.10 0.18 0.05 0.05 0.23 1157
13540802 181 -0.31 -0.04 0.12 0.12 0.20 1191
13545802 54 -0.44 -0.09 0.05 0.05 0.14 1193
13550802 113 -0.38 0.04 -0.07 0.07 0.11 1190
13555802 316 -0.16 0.22 -0.01 0.01 0.11 1193
13560802 500 0.04 0.27 0.18 0.18 0.12 1119
13565802 534 0.07 0.13 0.28 0.28 0.13 1123
13570802 324 -0.15 -0.16 0.15 0.15 0.12 1190
13575802 549 0.09 0.04 -0.06 0.06 0.11 1157
13580802 785 0.34 0.14 -0.07 0.07 0.10 1155
13585802 492 0.03 -0.25 0.04 0.04 0.10 1157
13590802 148 -0.34 -0.48 -0.11 0.11 0.10 1226
13595802 143 -0.35 -0.26 -0.40 0.40 0.14 1229
13600802 385 -0.09 0.10 -0.36 0.36 0.16 1190
13605802 590 0.13 0.25 0.01 0.01 0.16 1122
13610802 404 -0.07 -0.00 0.25 0.25 0.17 1191
13615802 151 -0.34 -0.19 0.10 0.10 0.15 1193
13620802 142 -0.35 -0.06 -0.15 0.15 0.15 1226
13625803 315 -0.16 0.16 -0.13 0.13 0.16 1193
13630802 492 0.03 0.27 0.11 0.11 0.17 1120
13635802 552 0.09 0.20 0.28 0.28 0.19 1122
13640802 571 0.11 0.09 0.24 0.24 0.20 1120
13645802 773 0.33 0.16 0.12 0.12 0.18 1122
13650803 745 0.30 -0.02 0.08 0.08 0.15 1155
13655803 263 -0.22 -0.48 -0.03 0.03 0.15 1229
13660803 80 -0.41 -0.42 -0.32 0.32 0.16 1226
13665803 205 -0.28 -0.09 -0.46 0.46 0.19 1229
13670803 397 -0.07 0.17 -0.20 0.20 0.20 1191
13675803 499 0.04 0.22 0.16 0.16 0.20 1122
13680803 536 0.08 0.17 0.27 0.27 0.22 1120
13685803 320 -0.16 -0.08 0.15 0.15 0.20 1193
13690803 230 -0.25 -0.11 -0.03 0.03 0.18 1226
13695803 293 -0.19 0.02 -0.11 0.11 0.18 1193
13700803 387 -0.08 0.11 -0.03 0.03 0.18 1191
13705803 761 0.32 0.36 0.15 0.15 0.19 1122
13710803 786 0.34 0.17 0.28 0.28 0.18 1120
13715803 409 -0.06 -0.29 0.19 0.19 0.16 1193
13720803 231 -0.25 -0.34 -0.15 0.15 0.15 1226
13725803 232 -0.25 -0.18 -0.38 0.38 0.17 1228
13730803 335 -0.14 0.02 -0.26 0.26 0.17 1191
13735803 305 -0.17 0.02 -0.01 0.01 0.16 1192
13740803 333 -0.14 0.07 0.08 0.08 0.16 1155
13745803 548 0.09 0.24 0.09 0.09 0.16 1122
13750803 805 0.36 0.33 0.18 0.18 0.18 1120
13755803 474 0.01 -0.14 0.24 0.24 0.19 1158
13760803 306 -0.17 -0.25 0.03 0.03 0.16 1190
13765803 442 -0.03 -0.03 -0.23 0.23 0.16 1228
13770803 508 0.05 0.03 -0.17 0.17 0.17 1155
13775803 364 -0.11 -0.10 0.01 0.01 0.13 1192
13780803 191 -0.29 -0.18 -0.02 0.02 0.11 1226
13785803 315 -0.16 0.04 -0.14 0.14 0.12 1193
13790804 493 0.03 0.20 -0.05 0.05 0.12 1155
13795803 693 0.24 0.28 0.18 0.18 0.12 1122
13800803 619 0.16 0.06 0.27 0.27 0.13 1119
13805804 368 -0.10 -0.21 0.11 0.11 0.12 1193
13810804 445 -0.02 -0.07 -0.13 0.13 0.13 1226
13815804 322 -0.15 -0.14 -0.19 0.19 0.13 1228
13820804 238 -0.24 -0.13 -0.12 0.12 0.12 1226
13825804 524 0.06 0.19 -0.05 0.05 0.13 1157
13830804 778 0.34 0.31 0.10 0.10 0.13 1120
13835804 510 0.05 -0.08 0.23 0.23 0.14 1157
13840804 227 -0.26 -0.29 0.07 0.07 0.14 1191
13845804 205 -0.28 -0.16 -0.24 0.24 0.15 1228
13850804 216 -0.27 -0.04 -0.27 0.27 0.15 1226
13855804 257 -0.22 0.07 -0.06 0.06 0.15 1193
13860804 350 -0.12 0.16 0.10 0.10 0.14 1155
13865804 411 -0.06 0.16 0.15 0.15 0.14 1158
13870804 443 -0.02 0.12 0.16 0.16 0.14 1155
13875804 496 0.03 0.09 0.13 0.13 0.15 1122
13880804 509 0.05 0.03 0.09 0.09 0.15 1120
13885804 589 0.13 0.03 0.04 0.04 0.13 1122
13890804 696 0.25 0.05 0.03 0.03 0.13 1120
13895804 518 0.06 -0.19 0.00 0.00 0.10 1157
13900804 302 -0.18 -0.32 -0.12 0.12 0.09 1226
13905804 263 -0.22 -0.20 -0.28 0.28 0.11 1229
13910804 340 -0.13 -0.02 -0.25 0.25 0.13 1226
13915804 420 -0.05 0.09 -0.06 0.06 0.12 1193
13920804 436 -0.03 0.10 0.10 0.10 0.11 1155
13925804 436 -0.03 0.08 0.12 0.12 0.11 1157
13930804 468 0.00 0.08 0.08 0.08 0.11 1120
13935804 471 0.01 0.05 0.06 0.06 0.11 1122
13940804 448 -0.02 0.01 0.05 0.05 0.11 1155
13945804 468 0.00 0.01 0.02 0.02 0.12 1122
13950804 487 0.02 0.01 0.00 0.00 0.10 1119
13955804 463 -0.00 -0.02 0.00 0.00 0.08 1193
13960804 466 0.00 -0.02 -0.01 0.01 0.05 1190
13965805 494 0.03 0.00 -0.02 0.02 0.05 1157
13970805 479 0.01 -0.02 -0.02 0.02 0.04 1190
13975805 461 -0.00 -0.03 -0.01 0.01 0.03 1228
13980805 493 0.03 0.00 -0.02 0.02 0.02 1154
13985805 498 0.03 0.00 -0.01 0.01 0.02 1157
13990805 467 0.00 -0.03 0.00 0.00 0.01 1155
13995805 481 0.02 -0.00 -0.01 0.01 0.01 1192
14000805 507 0.04 0.02 -0.01 0.01 0.01 1154
14005805 480 0.02 -0.01 0.01 0.01 0.01 1157
14010805 483 0.02 -0.00 0.01 0.01 0.01 1154
14015805 510 0.05 0.02 -0.00 0.00 0.01 1157
14020805 495 0.03 -0.00 0.01 0.01 0.01 1155
14025805 480 0.02 -0.01 0.01 0.01 0.01 1157
14030805 508 0.05 0.02 -0.00 0.00 0.01 1155
14035805 506 0.04 0.01 0.00 0.00 0.00 1122
14040805 472 0.01 -0.02 0.01 0.01 0.01 1154
14045805 491 0.03 0.00 -0.01 0.01 0.01 1157
14050805 502 0.04 0.01 -0.01 0.01 0.01 1154
14055805 488 0.02 -0.00 0.01 0.01 0.01 1157
14060805 488 0.02 -0.00 0.01 0.01 0.01 1155
14065805 517 0.06 0.02 0.00 0.00 0.01 1122
14070805 509 0.05 0.00 0.01 0.01 0.01 1119
14075805 482 0.02 -0.02 0.01 0.01 0.01 1157
14080805 507 0.04 0.01 -0.01 0.01 0.01 1154
14085805 510 0.05 0.01 -0.01 0.01 0.01 1157
14090805 488 0.02 -0.02 0.00 0.00 0.01 1155
14095805 505 0.04 0.00 -0.00 0.00 0.01 1157
14100805 520 0.06 0.01 -0.00 0.00 0.01 1154
14105805 493 0.03 -0.02 0.00 0.00 0.01 1157
14110805 486 0.02 -0.01 -0.00 0.00 0.00 1190
14115805 515 0.05 0.02 -0.01 0.01 0.01 1157
14120805 501 0.04 -0.00 -0.00 0.00 0.00 1190
14125806 486 0.02 -0.01 0.01 0.01 0.00 1157
14130805 515 0.05 0.02 -0.00 0.00 0.00 1154
14135806 517 0.06 0.01 0.00 0.00 0.00 1122
14140806 495 0.03 -0.01 0.01 0.01 0.00 1155
14145806 513 0.05 0.01 0.00 0.00 0.00 1122
14150806 530 0.07 0.02 -0.00 0.00 0.00 1154
14155806 506 0.04 -0.01 0.01 0.01 0.00 1157
14160806 504 0.04 -0.01 0.00 0.00 0.00 1155
14165806 531 0.07 0.01 -0.01 0.01 0.00 1157
14170806 515 0.05 -0.01 -0.00 0.00 0.00 1190
14175806 496 0.03 -0.02 0.00 0.00 0.00 1157
14180806 524 0.06 0.01 -0.01 0.01 0.00 1154
14185806 523 0.06 0.01 -0.01 0.01 0.00 1157
14190806 495 0.03 -0.02 0.01 0.01 0.00 1154
14195806 510 0.05 0.00 -0.00 0.00 0.00 1157
14200806 525 0.06 0.02 -0.01 0.01 0.00 1154
14205806 498 0.03 -0.01 0.01 0.01 0.00 1157
14210806 497 0.03 -0.01 0.00 0.00 0.01 1155
14215806 521 0.06 0.02 -0.01 0.01 0.00 1157
14220806 502 0.04 -0.00 0.00 0.00 0.00 1155
14225806 489 0.03 -0.01 0.01 0.01 0.01 1157
14230806 517 0.06 0.02 -0.00 0.00 0.00 1154
14235806 518 0.06 0.01 0.00 0.00 0.00 1122
14240806 490 0.03 -0.02 0.01 0.01 0.00 1155
14245806 507 0.04 0.00 0.00 0.00 0.00 1121
14250806 521 0.06 0.01 -0.01 0.01 0.00 1154
14255806 494 0.03 -0.02 0.00 0.00 0.00 1157
14260806 494 0.03 -0.01 0.00 0.00 0.00 1155
14265806 515 0.05 0.01 -0.01 0.01 0.00 1157
14270806 500 0.04 -0.01 -0.00 0.00 0.00 1190
14275806 487 0.02 -0.01 0.00 0.00 0.00 1157
14280806 508 0.05 0.01 -0.00 0.00 0.00 1155
14285807 508 0.05 0.01 -0.00 0.00 0.00 1157
14290807 482 0.02 -0.02 0.01 0.01 0.00 1154
14295807 498 0.03 0.01 -0.00 0.00 0.00 1157
14300807 513 0.05 0.02 -0.00 0.00 0.00 1155
14305807 487 0.02 -0.01 0.01 0.01 0.00 1157
14310807 489 0.03 -0.00 0.00 0.00 0.00 1154
14315807 515 0.05 0.02 -0.00 0.00 0.00 1157
14320807 499 0.04 -0.00 0.00 0.00 0.00 1155
14325807 483 0.02 -0.02 0.01 0.01 0.00 1157
14330807 507 0.04 0.01 -0.01 0.01 0.00 1155
14335807 500 0.04 0.00 -0.00 0.00 0.00 1157
14340807 478 0.01 -0.02 0.00 0.00 0.00 1154
14345807 492 0.03 0.00 -0.00 0.00 0.00 1157
14350807 510 0.05 0.02 -0.01 0.01 0.00 1154
14355807 486 0.02 -0.01 0.01 0.01 0.00 1157
14360807 477 0.01 -0.01 0.00 0.00 0.00 1155
14365807 504 0.04 0.02 -0.01 0.01 0.01 1157
14370807 488 0.02 -0.00 -0.00 0.00 0.00 1190
14375807 472 0.01 -0.01 0.01 0.01 0.00 1157
14380807 496 0.03 0.01 -0.00 0.00 0.00 1154
14385807 498 0.03 0.01 -0.00 0.00 0.00 1157
14390807 472 0.01 -0.02 0.01 0.01 0.00 1155
14395807 489 0.03 0.01 0.00 0.00 0.00 1122
14400807 505 0.04 0.02 -0.00 0.00 0.00 1154
14405807 482 0.02 -0.01 0.01 0.01 0.00 1157
14410807 482 0.02 -0.01 0.00 0.00 0.00 1154
14415807 506 0.04 0.02 -0.01 0.01 0.00 1157
14420807 492 0.03 -0.00 0.00 0.00 0.00 1155
14425807 477 0.01 -0.02 0.00 0.00 0.00 1157
14430807 501 0.04 0.01 -0.01 0.01 0.00 1154
14435807 499 0.04 0.00 -0.00 0.00 0.00 1157
14440807 473 0.01 -0.02 0.00 0.00 0.00 1155
14445807 490 0.03 0.00 -0.00 0.00 0.00 1157
14450807 499 0.04 0.01 -0.01 0.01 0.00 1154
14455808 473 0.01 -0.02 0.00 0.00 0.00 1157
14460808 471 0.01 -0.01 -0.00 0.00 0.00 1190
14465808 494 0.03 0.02 -0.01 0.01 0.00 1157
14470808 477 0.01 -0.00 0.00 0.00 0.00 1155
14475808 461 -0.00 -0.01 0.01 0.01 0.00 1192
14480808 490 0.03 0.02 -0.00 0.00 0.00 1154
14485808 492 0.03 0.01 0.00 0.00 0.00 1122
14490808 465 -0.00 -0.02 0.01 0.01 0.01 1190
14495808 485 0.02 0.01 0.00 0.00 0.00 1121
14500808 499 0.04 0.02 -0.00 0.00 0.00 1155
14505808 476 0.01 -0.01 0.01 0.01 0.00 1157
14510808 473 0.01 -0.01 0.00 0.00 0.00 1154
14515808 500 0.04 0.02 -0.01 0.01 0.00 1157
14520808 482 0.02 -0.01 -0.00 0.00 0.00 1190
14525808 463 -0.00 -0.02 0.00 0.00 0.00 1192
14530808 491 0.03 0.01 -0.01 0.01 0.01 1154
14535808 487 0.02 0.00 -0.01 0.01 0.01 1157
14540808 460 -0.01 -0.02 0.00 0.00 0.00 1190
14545808 478 0.01 0.01 -0.00 0.00 0.00 1157
14550808 490 0.03 0.01 -0.01 0.01 0.00 1154
14555808 462 -0.00 -0.01 0.01 0.01 0.00 1192
14560808 463 -0.00 -0.00 0.00 0.00 0.00 1190
14565808 487 0.02 0.02 -0.01 0.01 0.00 1157
14570808 471 0.01 -0.00 0.00 0.00 0.00 1154
14575808 452 -0.01 -0.02 0.01 0.01 0.01 1192
14580808 481 0.02 0.02 -0.00 0.00 0.00 1155
14585808 482 0.02 0.01 0.00 0.00 0.00 1122
14590808 460 -0.01 -0.01 0.01 0.01 0.00 1190
14595808 480 0.02 0.01 0.00 0.00 0.00 1122
14600808 490 0.03 0.01 -0.00 0.00 0.00 1154
14605808 462 -0.00 -0.02 0.00 0.00 0.00 1192
14610809 465 -0.00 -0.01 -0.00 0.00 0.00 1225
14615809 489 0.03 0.01 -0.01 0.01 0.00 1157
14620809 474 0.01 -0.01 0.00 0.00 0.00 1154
14625809 460 -0.01 -0.02 0.00 0.00 0.00 1192
14630809 486 0.02 0.01 -0.01 0.01 0.00 1154
14635809 486 0.02 0.01 -0.00 0.00 0.00 1157
14640809 456 -0.01 -0.02 0.01 0.01 0.00 1190
14645809 472 0.01 0.00 -0.00 0.00 0.00 1157
14650809 487 0.02 0.01 -0.01 0.01 0.00 1154
14655809 459 -0.01 -0.02 0.00 0.00 0.00 1193
14660809 463 -0.00 -0.00 0.00 0.00 0.00 1190
14665809 488 0.02 0.02 -0.00 0.00 0.00 1157
14670809 468 0.00 -0.01 0.00 0.00 0.00 1155
14675809 454 -0.01 -0.01 0.01 0.01 0.00 1192
14680809 484 0.02 0.02 -0.00 0.00 0.00 1155
14685809 480 0.02 0.01 0.00 0.00 0.00 1122
14690809 456 -0.01 -0.02 0.01 0.01 0.00 1190
14695809 475 0.01 0.01 -0.00 0.00 0.00 1157
14700809 490 0.03 0.02 -0.00 0.00 0.00 1155
14705809 459 -0.01 -0.02 0.01 0.01 0.00 1192
14710809 459 -0.01 -0.01 -0.00 0.00 0.00 1225
14715809 485 0.02 0.02 -0.01 0.01 0.00 1157
14720809 467 0.00 -0.01 -0.00 0.00 0.00 1190
14725809 450 -0.02 -0.02 0.00 0.00 0.00 1192
14730809 482 0.02 0.02 -0.01 0.01 0.00 1155
14735809 477 0.01 0.01 -0.00 0.00 0.00 1157
14740809 446 -0.02 -0.02 0.01 0.01 0.00 1190
14745809 462 -0.00 0.00 -0.00 0.00 0.00 1192
14750809 476 0.01 0.01 -0.01 0.01 0.00 1154
14755809 448 -0.02 -0.01 0.00 0.00 0.00 1192
14760809 451 -0.02 -0.00 0.00 0.00 0.00 1190
14765810 474 0.01 0.02 -0.00 0.00 0.00 1157
14770809 460 -0.01 -0.00 0.00 0.00 0.00 1190
14775810 446 -0.02 -0.01 0.01 0.01 0.01 1192
14780810 473 0.01 0.02 -0.00 0.00 0.00 1154
14785810 466 0.00 0.00 0.00 0.00 0.00 1122
14790810 439 -0.03 -0.02 0.00 0.00 0.00 1190
14795810 460 -0.01 0.01 -0.01 0.01 0.00 1192
14800810 475 0.01 0.02 -0.01 0.01 0.00 1154
14805810 450 -0.02 -0.01 0.01 0.01 0.00 1192
14810810 453 -0.01 -0.00 0.00 0.00 0.00 1190
14815810 477 0.01 0.02 -0.01 0.01 0.00 1157
14820810 456 -0.01 -0.01 0.00 0.00 0.00 1190
14825810 441 -0.03 -0.02 0.00 0.00 0.00 1193
14830810 469 0.00 0.01 -0.01 0.01 0.00 1154
14835810 470 0.00 0.01 -0.00 0.00 0.00 1157
14840810 446 -0.02 -0.02 0.01 0.01 0.01 1190
14845810 461 -0.00 0.00 0.00 0.00 0.00 1157
14850810 481 0.02 0.02 -0.00 0.00 0.00 1155
14855810 455 -0.01 -0.01 0.01 0.01 0.00 1193
14860810 453 -0.01 -0.01 0.00 0.00 0.00 1190
14865810 478 0.01 0.02 -0.01 0.01 0.00 1157
14870810 461 -0.00 -0.01 -0.00 0.00 0.00 1225
14875810 446 -0.02 -0.02 0.00 0.00 0.00 1193
14880810 474 0.01 0.02 -0.01 0.01 0.00 1154
14885810 471 0.01 0.01 -0.00 0.00 0.00 1157
14890810 447 -0.02 -0.02 0.01 0.01 0.00 1190
14895810 465 -0.00 0.01 -0.00 0.00 0.00 1192
14900810 484 0.02 0.02 -0.00 0.00 0.00 1155
14905810 451 -0.02 -0.02 0.01 0.01 0.00 1193
14910810 453 -0.01 -0.01 0.00 0.00 0.00 1190
14915810 478 0.01 0.02 -0.01 0.01 0.00 1158
14920810 463 -0.00 -0.00 0.00 0.00 0.00 1189
14925811 446 -0.02 -0.02 0.01 0.01 0.00 1192
14930811 474 0.01 0.02 -0.00 0.00 0.00 1154
14935811 475 0.01 0.01 -0.00 0.00 0.00 1157
14940811 451 -0.02 -0.02 0.01 0.01 0.00 1190
14945811 470 0.00 0.01 0.00 0.00 0.00 1121
14950811 481 0.02 0.01 -0.00 0.00 0.00 1155
14955811 453 -0.01 -0.02 0.00 0.00 0.00 1192
14960811 457 -0.01 -0.01 -0.00 0.00 0.00 1225
14965811 482 0.02 0.02 -0.01 0.01 0.00 1157
14970811 465 -0.00 -0.01 0.00 0.00 0.00 1190
14975811 452 -0.01 -0.01 0.01 0.01 0.00 1192
14980811 479 0.01 0.02 -0.00 0.00 0.00 1155
14985811 477 0.01 0.01 -0.00 0.00 0.00 1157
14990811 449 -0.02 -0.02 0.01 0.01 0.00 1190
14995811 468 0.00 0.01 -0.00 0.00 0.00 1157
15000811 483 0.02 0.02 -0.01 0.01 0.00 1154
15005811 455 -0.01 -0.02 0.01 0.01 0.00 1192
15010811 459 -0.01 -0.00 0.00 0.00 0.00 1190
15015811 483 0.02 0.02 -0.01 0.01 0.00 1157
15020811 462 -0.00 -0.01 0.00 0.00 0.00 1190
15025811 448 -0.02 -0.02 0.00 0.00 0.00 1193
15030811 477 0.01 0.02 -0.01 0.01 0.00 1155
15035811 478 0.01 0.01 -0.00 0.00 0.00 1157
15040811 448 -0.02 -0.02 0.01 0.01 0.00 1190
15045811 458 -0.01 -0.00 -0.00 0.00 0.00 1228
15050811 474 0.01 0.01 -0.01 0.01 0.00 1154
15055811 448 -0.02 -0.01 0.00 0.00 0.00 1192
15060811 450 -0.02 -0.00 0.00 0.00 0.00 1190
15065811 477 0.01 0.02 -0.00 0.00 0.00 1157
15070811 455 -0.01 -0.01 0.00 0.00 0.00 1190
15075811 443 -0.02 -0.01 0.01 0.01 0.00 1193
15080811 471 0.01 0.02 -0.00 0.00 0.00 1155
15085812 469 0.00 0.01 0.00 0.00 0.00 1121
15090811 441 -0.03 -0.02 0.01 0.01 0.00 1190
15095812 457 -0.01 0.00 -0.00 0.00 0.00 1192
15100812 473 0.01 0.01 -0.01 0.01 0.00 1155
15105812 444 -0.02 -0.02 0.00 0.00 0.00 1192
15110812 450 -0.02 -0.00 0.00 0.00 0.00 1190
15115812 476 0.01 0.02 -0.01 0.01 0.00 1157
15120812 456 -0.01 -0.01 0.00 0.00 0.00 1190
15125812 445 -0.02 -0.01 0.01 0.01 0.00 1192
15130812 476 0.01 0.02 -0.00 0.00 0.00 1154
15135812 467 0.00 0.00 -0.00 0.00 0.00 1157
15140812 440 -0.03 -0.02 0.01 0.01 0.00 1190
15145812 461 -0.00 0.01 -0.01 0.01 0.00 1192
15150812 476 0.01 0.02 -0.01 0.01 0.00 1155
15155812 447 -0.02 -0.02 0.01 0.01 0.00 1192
15160812 454 -0.01 -0.00 0.00 0.00 0.00 1190
15165812 475 0.01 0.02 -0.01 0.01 0.00 1157
15170812 459 -0.01 -0.01 0.00 0.00 0.00 1190
15175812 445 -0.02 -0.01 0.00 0.00 0.00 1192
15180812 473 0.01 0.02 -0.01 0.01 0.00 1155
15185812 471 0.01 0.01 -0.00 0.00 0.00 1157
15190812 445 -0.02 -0.02 0.01 0.01 0.00 1190
15195812 465 -0.00 0.01 -0.00 0.00 0.00 1192
15200812 474 0.01 0.01 -0.01 0.01 0.00 1155
15205812 444 -0.02 -0.02 0.00 0.00 0.00 1192
15210812 450 -0.02 -0.00 -0.00 0.00 0.00 1225
15215812 473 0.01 0.02 -0.01 0.01 0.00 1157
15220812 458 -0.01 -0.00 0.00 0.00 0.00 1190
15225812 447 -0.02 -0.01 0.01 0.01 0.00 1192
15230812 472 0.01 0.02 -0.00 0.00 0.00 1154
15235812 471 0.01 0.01 0.00 0.00 0.00 1122
15240812 443 -0.02 -0.02 0.01 0.01 0.00 1190
15245812 462 -0.00 0.00 -0.00 0.00 0.00 1192
15250812 476 0.01 0.01 -0.01 0.01 0.00 1154
15255813 449 -0.02 -0.02 0.00 0.00 0.00 1192
15260813 453 -0.01 -0.00 0.00 0.00 0.00 1190
15265813 478 0.01 0.02 -0.01 0.01 0.00 1157
15270813 457 -0.01 -0.01 0.00 0.00 0.00 1190
15275813 447 -0.02 -0.01 0.00 0.00 0.00 1192
15280813 473 0.01 0.02 -0.01 0.01 0.00 1154
15285813 469 0.00 0.00 -0.00 0.00 0.00 1157
15290813 443 -0.02 -0.02 0.01 0.01 0.00 1190
15295813 462 -0.00 0.01 -0.00 0.00 0.00 1193
15300813 476 0.01 0.01 -0.01 0.01 0.00 1155
15305813 448 -0.02 -0.02 0.01 0.01 0.00 1192
15310813 452 -0.01 -0.00 0.00 0.00 0.00 1190
15315813 477 0.01 0.02 -0.01 0.01 0.00 1157
15320813 458 -0.01 -0.01 0.00 0.00 0.00 1190
15325813 444 -0.02 -0.01 0.01 0.01 0.00 1193
15330813 470 0.00 0.01 -0.01 0.01 0.00 1154
15335813 467 0.00 0.01 -0.00 0.00 0.00 1157
15340813 441 -0.03 -0.02 0.01 0.01 0.00 1190
15345813 461 -0.00 0.01 -0.00 0.00 0.00 1192
15350813 477 0.01 0.02 -0.00 0.00 0.00 1155
15355813 448 -0.02 -0.02 0.01 0.01 0.00 1192
15360813 450 -0.02 -0.01 0.00 0.00 0.00 1190
15365813 479 0.01 0.02 -0.01 0.01 0.00 1157
15370813 460 -0.01 -0.01 0.00 0.00 0.00 1190
15375813 438 -0.03 -0.02 0.01 0.01 0.00 1192
15380813 465 -0.00 0.01 -0.01 0.01 0.00 1190
15385813 468 0.00 0.01 -0.01 0.01 0.01 1157
15390813 463 -0.00 0.00 0.01 0.01 0.01 1155
15395813 523 0.06 0.05 0.02 0.02 0.01 1122
15400813 610 0.16 0.08 0.04 0.04 0.01 1119
15405814 621 0.17 0.03 0.06 0.06 0.02 1122
15410814 659 0.21 0.02 0.06 0.06 0.02 1119
15415814 866 0.43 0.13 0.04 0.04 0.02 1122
15420814 972 0.54 0.09 0.08 0.08 0.03 1120
15425814 1003 0.58 -0.01 0.10 0.10 0.04 1157
15430814 1008 0.58 -0.09 0.02 0.02 0.04 1155
15435814 686 0.24 -0.39 -0.14 0.14 0.06 1193
15440814 498 0.03 -0.39 -0.31 0.31 0.09 1191
15445814 338 -0.14 -0.30 -0.41 0.41 0.12 1228
15450814 108 -0.38 -0.25 -0.34 0.34 0.16 1227
15455814 35 -0.46 -0.04 -0.21 0.21 0.17 1229
15460814 225 -0.26 0.30 -0.03 0.03 0.17 1191
15465814 748 0.30 0.73 0.28 0.28 0.19 1123
15470814 751 0.31 0.45 0.59 0.59 0.24 1120
15475814 236 -0.25 -0.18 0.51 0.51 0.28 1194
15480814 88 -0.41 -0.20 0.02 0.02 0.29 1191
15485814 676 0.23 0.39 -0.22 0.22 0.29 1158
15490814 840 0.40 0.31 0.10 0.10 0.27 1120
15495814 300 -0.18 -0.35 0.33 0.33 0.26 1193
15500814 91 -0.40 -0.40 -0.06 0.06 0.24 1226
15505814 421 -0.05 0.05 -0.42 0.42 0.26 1193
15510814 637 0.18 0.20 -0.18 0.18 0.27 1155
15515814 432 -0.04 -0.09 0.18 0.18 0.26 1193
15520814 190 -0.30 -0.26 0.08 0.08 0.21 1191
15525814 232 -0.25 -0.09 -0.22 0.22 0.18 1228
15530814 522 0.06 0.21 -0.18 0.18 0.20 1155
15535814 518 0.06 0.11 0.11 0.11 0.19 1122
15540814 315 -0.16 -0.11 0.19 0.19 0.19 1191
15545814 241 -0.24 -0.12 -0.02 0.02 0.16 1229
15550814 203 -0.28 -0.07 -0.17 0.17 0.17 1226
15555814 246 -0.24 0.03 -0.10 0.10 0.14 1193
15560814 415 -0.05 0.18 0.05 0.05 0.13 1155
15565815 425 -0.04 0.11 0.15 0.15 0.13 1157
15570815 326 -0.15 -0.03 0.13 0.13 0.13 1190
15575815 451 -0.02 0.08 0.04 0.04 0.11 1157
15580815 464 -0.00 0.03 0.00 0.00 0.10 1155
15585815 442 -0.03 -0.03 0.03 0.03 0.09 1193
15590815 462 -0.00 -0.03 0.00 0.00 0.07 1190
15595815 464 -0.00 -0.05 -0.05 0.05 0.07 1228
15600815 405 -0.06 -0.10 -0.06 0.06 0.06 1226
15605815 285 -0.19 -0.16 -0.09 0.09 0.06 1228
15610815 303 -0.17 -0.06 -0.12 0.12 0.07 1226
15615815 335 -0.14 0.02 -0.09 0.09 0.06 1193
15620815 481 0.02 0.15 0.02 0.02 0.05 1120
15625815 634 0.18 0.21 0.14 0.14 0.06 1123
15630815 638 0.19 0.09 0.19 0.19 0.08 1120
15635815 233 -0.25 -0.31 0.07 0.07 0.08 1193
15640815 72 -0.42 -0.29 -0.19 0.19 0.10 1226
15645815 371 -0.10 0.13 -0.29 0.29 0.13 1193
15650815 682 0.23 0.35 -0.01 0.01 0.12 1155
15655815 474 0.01 0.01 0.29 0.29 0.14 1123
15660815 420 -0.05 -0.06 0.19 0.19 0.15 1191
15665815 376 -0.10 -0.08 -0.07 0.07 0.15 1228
15670815 321 -0.16 -0.09 -0.14 0.14 0.16 1225
15675815 555 0.10 0.15 -0.04 0.04 0.15 1158
15680815 470 0.00 0.00 0.07 0.07 0.14 1120
15685815 298 -0.18 -0.15 0.05 0.05 0.14 1193
15690815 328 -0.15 -0.04 -0.08 0.08 0.12 1226
15695815 485 0.02 0.12 -0.09 0.09 0.10 1158
15700815 344 -0.13 -0.05 0.03 0.03 0.11 1191
15705815 411 -0.06 0.04 0.07 0.07 0.08 1158
15710815 808 0.37 0.34 0.06 0.06 0.07 1120
15715816 547 0.09 -0.07 0.15 0.15 0.08 1158
15720815 167 -0.32 -0.38 0.05 0.05 0.07 1190
15725815 379 -0.09 -0.03 -0.22 0.22 0.09 1228
15730816 601 0.15 0.18 -0.20 0.20 0.10 1155
15735816 648 0.20 0.12 0.11 0.11 0.11 1123
15740816 457 -0.01 -0.11 0.20 0.20 0.12 1191
15745816 144 -0.35 -0.32 -0.05 0.05 0.11 1228
15750816 198 -0.29 -0.09 -0.27 0.27 0.14 1226
15755816 292 -0.19 0.08 -0.19 0.19 0.15 1193
15760816 345 -0.13 0.14 0.06 0.06 0.15 1155
15765816 316 -0.16 0.09 0.17 0.17 0.15 1157
15770816 421 -0.05 0.16 0.13 0.13 0.16 1155
15775816 659 0.21 0.27 0.13 0.13 0.15 1123
15780816 837 0.40 0.24 0.23 0.23 0.15 1120
15785816 858 0.42 0.06 0.25 0.25 0.17 1123
15790816 466 0.00 -0.39 0.06 0.06 0.15 1155
15795816 139 -0.35 -0.53 -0.30 0.30 0.18 1228
15800816 256 -0.23 -0.18 -0.50 0.50 0.20 1226
15805816 516 0.05 0.15 -0.29 0.29 0.21 1157
15810816 410 -0.06 0.03 0.07 0.07 0.21 1155
15815816 281 -0.20 -0.05 0.15 0.15 0.21 1193
15820816 318 -0.16 0.05 -0.00 0.00 0.20 1191
15825816 364 -0.11 0.11 -0.03 0.03 0.19 1192
15830816 464 -0.00 0.17 0.10 0.10 0.17 1155
15835816 452 -0.01 0.09 0.17 0.17 0.17 1157
15840816 439 -0.03 0.03 0.12 0.12 0.17 1155
15845816 526 0.07 0.07 0.05 0.05 0.15 1122
15850816 484 0.02 -0.02 0.03 0.03 0.10 1155
15855816 421 -0.05 -0.09 0.00 0.00 0.07 1193
15860816 478 0.01 -0.02 -0.06 0.06 0.07 1190
15865816 531 0.07 0.01 -0.06 0.06 0.06 1157
15870816 531 0.07 -0.02 -0.01 0.01 0.06 1191
15875816 444 -0.02 -0.10 -0.00 0.00 0.06 1228
15880816 302 -0.18 -0.17 -0.08 0.08 0.06 1226
15885817 311 -0.17 -0.07 -0.15 0.15 0.06 1228
15890817 353 -0.12 0.03 -0.10 0.10 0.05 1190
15895817 442 -0.03 0.12 0.02 0.02 0.05 1157
15900817 478 0.01 0.11 0.12 0.12 0.06 1120
15905817 426 -0.04 0.02 0.12 0.12 0.07 1157
15910817 429 -0.04 0.02 0.05 0.05 0.07 1155
15915817 475 0.01 0.04 0.01 0.01 0.07 1122
15920817 468 0.00 0.01 0.02 0.02 0.07 1119
15925817 446 -0.02 -0.03 0.02 0.02 0.07 1193
15930817 461 -0.00 -0.01 -0.01 0.01 0.06 1225
15935817 465 -0.00 -0.02 -0.03 0.03 0.05 1228
15940817 442 -0.03 -0.04 -0.02 0.02 0.04 1226
15945817 466 0.00 -0.01 -0.02 0.02 0.04 1193
15950817 485 0.02 0.01 -0.02 0.02 0.03 1155
15955817 466 0.00 -0.02 -0.00 0.00 0.02 1192
15960817 482 0.02 0.00 -0.00 0.00 0.01 1154
15965817 504 0.04 0.01 -0.00 0.00 0.01 1157
15970817 482 0.02 -0.01 0.00 0.00 0.01 1155
15975817 464 -0.00 -0.03 -0.00 0.00 0.01 1228
15980817 494 0.03 0.01 -0.02 0.02 0.01 1155
15985817 495 0.03 0.01 -0.01 0.01 0.01 1157
15990817 475 0.01 -0.01 0.01 0.01 0.01 1155
15995817 496 0.03 0.01 0.00 0.00 0.01 1122
16000817 511 0.05 0.02 0.00 0.00 0.00 1120
16005817 484 0.02 -0.01 0.01 0.01 0.01 1157
16010817 486 0.02 -0.01 0.00 0.00 0.01 1155
16015817 510 0.05 0.02 -0.01 0.01 0.01 1157
16020817 497 0.03 -0.00 0.00 0.00 0.01 1155
16025817 487 0.02 -0.01 0.01 0.01 0.01 1157
16030817 513 0.05 0.02 -0.00 0.00 0.01 1155
16035817 510 0.05 0.00 0.00 0.00 0.00 1122
16040818 490 0.03 -0.02 0.01 0.01 0.00 1155
16045817 511 0.05 0.01 -0.00 0.00 0.00 1157
16050818 537 0.08 0.02 -0.00 0.00 0.00 1155
16055818 496 0.03 -0.02 0.01 0.01 0.00 1157
16060818 498 0.03 -0.01 -0.00 0.00 0.00 1190
16065818 522 0.06 0.01 -0.02 0.02 0.00 1157
16070818 502 0.04 -0.01 -0.01 0.01 0.01 1190
16075818 482 0.02 -0.02 0.00 0.00 0.00 1157
16080818 512 0.05 0.02 -0.01 0.01 0.01 1155
16085818 506 0.04 0.01 -0.00 0.00 0.01 1157
16090818 477 0.01 -0.02 0.01 0.01 0.01 1154
16095818 498 0.03 0.01 -0.00 0.00 0.01 1157
16100818 513 0.05 0.02 -0.00 0.00 0.01 1155
16105818 490 0.03 -0.01 0.01 0.01 0.01 1157
16110818 497 0.03 0.00 0.01 0.01 0.01 1120
16115818 528 0.07 0.03 0.00 0.00 0.01 1122
16120818 513 0.05 -0.00 0.01 0.01 0.01 1154
16125818 502 0.04 -0.01 0.01 0.01 0.01 1157
16130818 524 0.06 0.01 -0.00 0.00 0.01 1154
16135818 525 0.06 0.00 -0.01 0.01 0.01 1157
16140818 500 0.04 -0.02 -0.00 0.00 0.01 1190
16145818 517 0.06 -0.00 -0.01 0.01 0.01 1192
16150818 531 0.07 0.01 -0.01 0.01 0.01 1155
16155818 502 0.04 -0.02 -0.00 0.00 0.01 1192
16160818 503 0.04 -0.01 -0.00 0.00 0.01 1190
16165818 524 0.06 0.01 -0.01 0.01 0.01 1157
16170818 504 0.04 -0.01 -0.00 0.00 0.01 1190
16175818 494 0.03 -0.01 0.00 0.00 0.01 1157
16180818 523 0.06 0.02 -0.00 0.00 0.00 1155
16185818 517 0.06 0.01 0.00 0.00 0.00 1122
16190818 495 0.03 -0.01 0.01 0.01 0.01 1155
16195818 515 0.05 0.01 0.00 0.00 0.01 1122
16200819 524 0.06 0.01 -0.00 0.00 0.00 1155
16205819 499 0.04 -0.01 0.01 0.01 0.00 1157
16210819 497 0.03 -0.01 0.00 0.00 0.00 1155
16215819 520 0.06 0.02 -0.01 0.01 0.00 1157
16220819 501 0.04 -0.01 -0.00 0.00 0.00 1190
16225819 488 0.02 -0.01 0.00 0.00 0.00 1157
16230819 515 0.05 0.02 -0.00 0.00 0.00 1154
16235819 508 0.05 0.00 -0.00 0.00 0.00 1157
16240819 488 0.02 -0.01 0.01 0.01 0.00 1155
16245819 508 0.05 0.01 -0.00 0.00 0.00 1157
16250819 518 0.06 0.01 -0.00 0.00 0.00 1155
16255819 494 0.03 -0.01 0.01 0.01 0.00 1157
16260819 491 0.03 -0.01 0.00 0.00 0.00 1154
16265819 519 0.06 0.02 -0.01 0.01 0.00 1157
16270819 503 0.04 -0.00 0.00 0.00 0.00 1155
16275819 491 0.03 -0.01 0.01 0.01 0.00 1157
16280819 516 0.05 0.01 -0.00 0.00 0.00 1154
16285819 509 0.05 0.00 -0.00 0.00 0.00 1157
16290819 486 0.02 -0.02 0.00 0.00 0.00 1155
16295819 507 0.04 0.01 -0.00 0.00 0.00 1157
16300819 518 0.06 0.01 -0.00 0.00 0.00 1154
16305819 490 0.03 -0.02 0.01 0.01 0.00 1157
16310819 491 0.03 -0.01 -0.00 0.00 0.00 1190
16315819 519 0.06 0.02 -0.01 0.01 0.00 1157
16320819 500 0.04 -0.01 0.00 0.00 0.00 1154
16325819 488 0.02 -0.01 0.01 0.01 0.00 1157
16330819 509 0.05 0.01 -0.00 0.00 0.00 1155
16335819 504 0.04 0.00 -0.00 0.00 0.00 1157
16340819 482 0.02 -0.02 0.00 0.00 0.00 1155
16345819 501 0.04 0.01 -0.00 0.00 0.00 1157
16350819 510 0.05 0.01 -0.00 0.00 0.00 1155
16355819 479 0.01 -0.02 0.01 0.01 0.00 1157
16360820 483 0.02 -0.00 -0.00 0.00 0.00 1190
16365819 507 0.04 0.02 -0.01 0.01 0.00 1157
16370820 489 0.03 -0.00 0.00 0.00 0.00 1154
16375820 479 0.01 -0.01 0.01 0.01 0.00 1157
16380820 505 0.04 0.02 -0.00 0.00 0.00 1155
16385820 500 0.04 0.00 0.00 0.00 0.00 1122
16390820 474 0.01 -0.02 0.01 0.01 0.00 1155
16395820 498 0.03 0.01 -0.00 0.00 0.00 1157
16400820 510 0.05 0.01 -0.00 0.00 0.00 1155
16405820 482 0.02 -0.02 0.01 0.01 0.00 1157
16410820 483 0.02 -0.01 0.00 0.00 0.00 1155
16415820 509 0.05 0.02 -0.01 0.01 0.00 1157
16420820 484 0.02 -0.01 -0.00 0.00 0.00 1190
16425820 470 0.00 -0.02 0.00 0.00 0.00 1157
16430820 499 0.04 0.02 -0.01 0.01 0.00 1155
16435820 494 0.03 0.01 -0.00 0.00 0.00 1157
16440820 467 0.00 -0.02 0.01 0.01 0.00 1155
16445820 485 0.02 0.01 -0.00 0.00 0.00 1157
16450820 493 0.03 0.01 -0.01 0.01 0.00 1155
16455820 466 0.00 -0.01 0.00 0.00 0.00 1157
16460820 473 0.01 0.00 0.00 0.00 0.00 1120
16465820 500 0.04 0.02 -0.00 0.00 0.00 1157
16470820 473 0.01 -0.01 0.01 0.01 0.00 1155
16475820 464 -0.00 -0.01 0.01 0.01 0.00 1192
16480820 494 0.03 0.02 -0.01 0.01 0.00 1155
16485820 490 0.03 0.01 0.00 0.00 0.00 1122
16490820 464 -0.00 -0.02 0.01 0.01 0.00 1190
16495820 484 0.02 0.01 -0.00 0.00 0.00 1157
16500820 494 0.03 0.01 -0.01 0.01 0.00 1155
16505820 462 -0.00 -0.02 0.00 0.00 0.00 1192
16510820 467 0.00 -0.01 -0.00 0.00 0.00 1190
16515820 490 0.03 0.02 -0.01 0.01 0.01 1158
16520820 470 0.00 -0.01 0.00 0.00 0.00 1155
16525821 460 -0.01 -0.01 0.01 0.01 0.00 1192
16530820 486 0.02 0.02 -0.00 0.00 0.00 1155
16535821 479 0.01 0.00 0.00 0.00 0.00 1122
16540821 456 -0.01 -0.02 0.01 0.01 0.00 1190
16545821 478 0.01 0.01 -0.00 0.00 0.00 1157
16550821 487 0.02 0.01 -0.00 0.00 0.00 1155
16555821 452 -0.01 -0.02 0.01 0.01 0.00 1192
16560821 458 -0.01 -0.01 -0.00 0.00 0.00 1225
16565821 484 0.02 0.02 -0.01 0.01 0.00 1157
16570821 463 -0.00 -0.01 0.00 0.00 0.00 1190
16575821 454 -0.01 -0.01 0.01 0.01 0.00 1192
16580821 481 0.02 0.02 -0.00 0.00 0.00 1155
16585821 475 0.01 0.00 0.00 0.00 0.00 1122
16590821 452 -0.01 -0.02 0.01 0.01 0.00 1190
16595821 474 0.01 0.01 -0.00 0.00 0.00 1157
16600821 484 0.02 0.01 -0.00 0.00 0.00 1155
16605821 456 -0.01 -0.02 0.01 0.01 0.00 1192
16610821 466 0.00 -0.00 -0.00 0.00 0.00 1190
16615821 485 0.02 0.01 -0.01 0.01 0.00 1157
16620821 462 -0.00 -0.01 0.00 0.00 0.00 1190
16625821 455 -0.01 -0.01 0.00 0.00 0.00 1192
16630821 480 0.02 0.01 -0.01 0.01 0.00 1155
16635821 475 0.01 0.00 -0.00 0.00 0.00 1157
16640821 449 -0.02 -0.02 0.01 0.01 0.00 1190
16645821 471 0.01 0.01 -0.00 0.00 0.00 1157
16650821 483 0.02 0.02 -0.00 0.00 0.00 1155
16655821 456 -0.01 -0.01 0.01 0.01 0.00 1192
16660821 463 -0.00 -0.00 0.00 0.00 0.00 1190
16665821 487 0.02 0.02 -0.00 0.00 0.00 1157
16670821 469 0.00 -0.01 0.00 0.00 0.00 1155
16675821 459 -0.01 -0.01 0.01 0.01 0.00 1192
16680821 484 0.02 0.01 -0.00 0.00 0.00 1155
16685822 475 0.01 -0.00 -0.00 0.00 0.00 1192
16690822 450 -0.02 -0.02 0.00 0.00 0.00 1190
16695822 472 0.01 0.01 -0.01 0.01 0.00 1157
16700822 485 0.02 0.02 -0.01 0.01 0.00 1155
16705822 458 -0.01 -0.01 0.01 0.01 0.00 1192
16710822 466 0.00 -0.00 0.00 0.00 0.00 1155
16715822 488 0.02 0.02 -0.00 0.00 0.00 1157
16720822 466 0.00 -0.01 0.00 0.00 0.00 1155
16725822 457 -0.01 -0.01 0.00 0.00 0.00 1192
16730822 485 0.02 0.02 -0.01 0.01 0.00 1155
16735822 474 0.01 -0.00 -0.00 0.00 0.00 1192
16740822 448 -0.02 -0.02 0.00 0.00 0.00 1190
16745822 466 0.00 0.00 -0.01 0.01 0.00 1157
16750822 483 0.02 0.02 -0.01 0.01 0.00 1155
16755822 457 -0.01 -0.01 0.01 0.01 0.00 1192
16760822 463 -0.00 -0.00 0.01 0.01 0.01 1190
16765822 487 0.02 0.02 -0.00 0.00 0.00 1157
16770822 466 0.00 -0.01 0.00 0.00 0.01 1154
16775822 453 -0.01 -0.02 0.00 0.00 0.01 1192
16780822 482 0.02 0.02 -0.01 0.01 0.01 1155
16785822 478 0.01 0.00 -0.00 0.00 0.01 1157
16790822 454 -0.01 -0.02 0.01 0.01 0.01 1190
16795822 469 0.00 0.00 -0.00 0.00 0.01 1157
16800822 479 0.01 0.01 -0.01 0.01 0.01 1154
16805822 450 -0.02 -0.02 0.00 0.00 0.00 1192
16810822 457 -0.01 -0.00 -0.00 0.00 0.00 1225
16815822 484 0.02 0.02 -0.01 0.01 0.00 1157
16820822 463 -0.00 -0.01 0.01 0.01 0.00 1190
16825822 451 -0.02 -0.01 0.01 0.01 0.00 1193
16830822 477 0.01 0.02 -0.00 0.00 0.00 1155
16835822 473 0.01 0.00 -0.00 0.00 0.00 1157
16840822 450 -0.02 -0.02 0.01 0.01 0.00 1190
16845823 473 0.01 0.01 -0.00 0.00 0.00 1157
16850823 474 0.01 0.01 -0.00 0.00 0.00 1154
16855823 445 -0.02 -0.02 0.00 0.00 0.00 1192
16860823 453 -0.01 -0.00 -0.01 0.01 0.00 1225
16865823 475 0.01 0.02 -0.01 0.01 0.00 1157
16870823 454 -0.01 -0.01 0.00 0.00 0.00 1190
16875823 446 -0.02 -0.01 0.01 0.01 0.00 1193
16880823 475 0.01 0.02 -0.00 0.00 0.00 1155
16885823 465 -0.00 0.00 0.00 0.00 0.00 1157
16890823 441 -0.03 -0.02 0.01 0.01 0.00 1190
16895823 462 -0.00 0.01 -0.00 0.00 0.00 1192
16900823 474 0.01 0.01 -0.01 0.01 0.01 1155
16905823 446 -0.02 -0.02 0.01 0.01 0.01 1192
16910823 457 -0.01 0.00 0.00 0.00 0.01 1155
16915823 480 0.02 0.02 -0.00 0.00 0.00 1157
16920823 459 -0.01 -0.01 0.00 0.00 0.00 1190
16925823 448 -0.02 -0.01 0.00 0.00 0.00 1192
16930823 477 0.01 0.02 -0.01 0.01 0.00 1155
16935823 471 0.01 0.00 -0.00 0.00 0.00 1157
16940823 446 -0.02 -0.02 0.01 0.01 0.00 1190
16945823 467 0.00 0.01 -0.01 0.01 0.00 1157
16950823 472 0.01 0.01 -0.01 0.01 0.01 1155
16955823 444 -0.02 -0.02 0.00 0.00 0.00 1192
16960823 450 -0.02 -0.00 -0.00 0.00 0.00 1225
16965823 478 0.01 0.02 -0.01 0.01 0.00 1157
16970823 460 -0.01 -0.00 0.01 0.01 0.01 1190
16975823 445 -0.02 -0.01 0.01 0.01 0.01 1192
16980823 470 0.00 0.01 -0.00 0.00 0.01 1154
16985823 464 -0.00 0.00 -0.00 0.00 0.01 1192
16990823 443 -0.02 -0.02 0.01 0.01 0.01 1190
16995823 462 -0.00 0.01 -0.00 0.00 0.00 1192
17000823 476 0.01 0.02 -0.00 0.00 0.00 1154
17005824 443 -0.02 -0.02 0.01 0.01 0.00 1193
17010824 448 -0.02 -0.01 -0.00 0.00 0.00 1225
17015824 474 0.01 0.02 -0.01 0.01 0.00 1157
17020824 454 -0.01 -0.01 0.00 0.00 0.00 1190
17025824 444 -0.02 -0.01 0.01 0.01 0.00 1192
17030824 472 0.01 0.02 -0.00 0.00 0.00 1155
17035824 468 0.00 0.01 0.00 0.00 0.00 1122
17040824 444 -0.02 -0.02 0.01 0.01 0.00 1190
17045824 465 -0.00 0.01 -0.00 0.00 0.00 1192
17050824 477 0.01 0.01 -0.00 0.00 0.00 1155
17055824 447 -0.02 -0.02 0.00 0.00 0.00 1192
17060824 452 -0.01 -0.01 -0.00 0.00 0.00 1226
17065824 474 0.01 0.02 -0.01 0.01 0.00 1157
17070824 455 -0.01 -0.01 0.00 0.00 0.00 1190
17075824 444 -0.02 -0.01 0.00 0.00 0.00 1192
17080824 469 0.00 0.02 -0.01 0.01 0.00 1154
17085824 459 -0.01 0.00 -0.00 0.00 0.00 1193
17090824 434 -0.03 -0.02 0.00 0.00 0.00 1190
17095824 459 -0.01 0.01 -0.00 0.00 0.00 1192
17100824 470 0.00 0.02 -0.00 0.00 0.00 1154
17105824 441 -0.03 -0.01 0.01 0.01 0.00 1192
17110824 446 -0.02 -0.00 0.00 0.00 0.00 1190
17115824 472 0.01 0.02 -0.01 0.01 0.00 1157
17120824 455 -0.01 -0.00 0.00 0.00 0.00 1190
17125824 442 -0.03 -0.01 0.01 0.01 0.00 1193
17130824 470 0.00 0.02 -0.00 0.00 0.00 1155
17135824 464 -0.00 0.00 -0.00 0.00 0.00 1192
17140824 443 -0.02 -0.02 0.01 0.01 0.00 1190
17145824 464 -0.00 0.01 -0.00 0.00 0.00 1192
17150824 475 0.01 0.01 -0.00 0.00 0.01 1154
17155824 448 -0.02 -0.02 0.00 0.00 0.00 1192
17160824 456 -0.01 -0.00 -0.00 0.00 0.00 1226
17165824 481 0.02 0.02 -0.01 0.01 0.00 1157
17170825 456 -0.01 -0.01 0.00 0.00 0.00 1190
17175825 445 -0.02 -0.02 0.00 0.00 0.00 1192
17180825 473 0.01 0.02 -0.01 0.01 0.00 1154
17185825 469 0.00 0.00 -0.00 0.00 0.00 1156
17190825 444 -0.02 -0.02 0.01 0.01 0.00 1190
17195825 464 -0.00 0.01 -0.00 0.00 0.00 1192
17200825 476 0.01 0.01 -0.00 0.00 0.00 1154
17205825 449 -0.02 -0.01 0.01 0.01 0.00 1192
17210825 459 -0.01 0.00 0.00 0.00 0.00 1154
17215825 478 0.01 0.02 -0.00 0.00 0.00 1157
17220825 458 -0.01 -0.01 0.00 0.00 0.00 1190
17225825 448 -0.02 -0.01 0.00 0.00 0.00 1193
17230825 476 0.01 0.02 -0.01 0.01 0.00 1154
17235825 472 0.01 0.00 0.00 0.00 0.00 1121
17240825 448 -0.02 -0.02 0.01 0.01 0.00 1190
17245825 467 0.00 0.01 -0.00 0.00 0.00 1157
17250825 478 0.01 0.01 -0.01 0.01 0.00 1154
17255825 450 -0.02 -0.02 0.00 0.00 0.00 1192
17260825 459 -0.01 -0.00 -0.00 0.00 0.00 1225
17265825 485 0.02 0.02 -0.01 0.01 0.00 1157
17270825 461 -0.00 -0.01 0.01 0.01 0.00 1190
17275825 451 -0.02 -0.01 0.00 0.00 0.00 1192
17280825 479 0.01 0.02 -0.01 0.01 0.00 1154
17285825 471 0.01 0.00 -0.00 0.00 0.00 1157
17290825 447 -0.02 -0.02 0.01 0.01 0.00 1190
17295825 467 0.00 0.01 -0.00 0.00 0.00 1157
17300825 479 0.01 0.01 -0.01 0.01 0.00 1155
17305825 446 -0.02 -0.02 0.01 0.01 0.00 1192
17310825 455 -0.01 -0.00 -0.00 0.00 0.00 1225
17315826 473 0.01 0.02 -0.01 0.01 0.00 1157
17320825 455 -0.01 -0.01 0.00 0.00 0.00 1190
17325825 449 -0.02 -0.01 0.01 0.01 0.00 1192
17330826 477 0.01 0.02 -0.00 0.00 0.00 1154
17335826 472 0.01 0.01 0.00 0.00 0.00 1121
17340826 449 -0.02 -0.02 0.01 0.01 0.00 1190
17345826 470 0.00 0.01 -0.00 0.00 0.00 1157
17350826 479 0.01 0.01 -0.01 0.01 0.00 1154
17355826 452 -0.01 -0.02 0.00 0.00 0.00 1192
17360826 460 -0.01 -0.00 -0.00 0.00 0.00 1225
17365826 484 0.02 0.02 -0.01 0.01 0.00 1157
17370826 466 0.00 -0.01 0.00 0.00 0.00 1155
17375826 453 -0.01 -0.02 0.00 0.00 0.00 1192
17380826 480 0.02 0.01 -0.01 0.01 0.01 1155
17385826 472 0.01 0.00 -0.00 0.00 0.00 1157
17390826 446 -0.02 -0.02 0.00 0.00 0.00 1191
17395826 468 0.00 0.01 -0.01 0.01 0.00 1156
17400826 480 0.02 0.02 -0.01 0.01 0.00 1155
17405826 449 -0.02 -0.02 0.01 0.01 0.00 1193
17410826 455 -0.01 -0.00 0.00 0.00 0.00 1190
17415826 482 0.02 0.02 -0.01 0.01 0.00 1157
17420826 455 -0.01 -0.01 0.00 0.00 0.00 1190
17425826 441 -0.03 -0.02 0.01 0.01 0.00 1193
17430826 470 0.00 0.02 -0.01 0.01 0.00 1155
17435826 463 -0.00 0.00 -0.00 0.00 0.00 1193
17440826 437 -0.03 -0.02 0.01 0.01 0.01 1190
17445826 462 -0.00 0.01 -0.00 0.00 0.00 1192
17450826 476 0.01 0.02 -0.00 0.00 0.00 1155
17455826 444 -0.02 -0.02 0.01 0.01 0.00 1193
17460826 453 -0.01 -0.00 0.00 0.00 0.00 1190
17465826 477 0.01 0.02 -0.01 0.01 0.00 1157
17470826 457 -0.01 -0.01 0.00 0.00 0.00 1190
17475826 443 -0.02 -0.02 0.00 0.00 0.00 1192
17480826 471 0.01 0.01 -0.01 0.01 0.00 1155
17485827 466 0.00 0.00 -0.00 0.00 0.00 1157
17490827 441 -0.03 -0.02 0.00 0.00 0.00 1190
17495827 465 -0.00 0.01 -0.00 0.00 0.00 1193
17500827 476 0.01 0.01 -0.00 0.00 0.01 1154
17505827 444 -0.02 -0.02 0.01 0.01 0.00 1192
17510827 451 -0.02 -0.00 -0.00 0.00 0.00 1225
17515827 481 0.02 0.02 -0.01 0.01 0.00 1157
17520827 458 -0.01 -0.01 0.00 0.00 0.00 1190
17525827 447 -0.02 -0.01 0.01 0.01 0.01 1192
17530827 476 0.01 0.02 -0.01 0.01 0.00 1155
17535827 470 0.00 0.00 -0.00 0.00 0.00 1157
17540827 447 -0.02 -0.02 0.01 0.01 0.00 1190
17545827 472 0.01 0.01 -0.00 0.00 0.00 1157
17550827 480 0.02 0.01 -0.00 0.00 0.00 1155
17555827 449 -0.02 -0.02 0.01 0.01 0.00 1192
17560827 456 -0.01 -0.01 -0.00 0.00 0.00 1225
17565827 480 0.02 0.02 -0.01 0.01 0.00 1157
17570827 458 -0.01 -0.01 0.00 0.00 0.00 1189
17575827 453 -0.01 -0.01 0.01 0.01 0.00 1192
17580827 481 0.02 0.02 -0.00 0.00 0.00 1155
17585827 475 0.01 0.00 0.00 0.00 0.00 1122
17590827 452 -0.01 -0.02 0.01 0.01 0.00 1190
17595827 472 0.01 0.01 -0.00 0.00 0.00 1157
17600827 483 0.02 0.01 -0.01 0.01 0.00 1154
17605827 453 -0.01 -0.02 0.00 0.00 0.00 1192
17610827 458 -0.01 -0.01 -0.00 0.00 0.00 1225
17615827 482 0.02 0.02 -0.01 0.01 0.00 1157
17620827 459 -0.01 -0.01 0.00 0.00 0.00 1190
17625827 446 -0.02 -0.01 0.00 0.00 0.00 1192
17630827 478 0.01 0.02 -0.01 0.01 0.00 1154
17635827 471 0.01 0.01 0.00 0.00 0.00 1122
17640827 445 -0.02 -0.02 0.01 0.01 0.00 1190
17645827 465 -0.00 0.01 -0.00 0.00 0.00 1192
17650828 476 0.01 0.01 -0.00 0.00 0.00 1154
17655828 448 -0.02 -0.02 0.01 0.01 0.00 1192
17660828 448 -0.02 -0.01 0.00 0.00 0.00 1190
17665828 476 0.01 0.02 -0.01 0.01 0.00 1157
17670828 458 -0.01 -0.00 0.00 0.00 0.00 1190
17675828 449 -0.02 -0.01 0.01 0.01 0.00 1193
17680828 472 0.01 0.01 -0.00 0.00 0.00 1154
17685828 464 -0.00 0.00 -0.00 0.00 0.00 1192
17690828 444 -0.02 -0.02 0.00 0.00 0.00 1190
17695828 468 0.00 0.01 -0.00 0.00 0.00 1156
17700828 476 0.01 0.01 -0.00 0.00 0.00 1154
17705828 453 -0.01 -0.01 0.01 0.01 0.00 1192
17710828 460 -0.01 -0.00 0.00 0.00 0.00 1190
17715828 480 0.02 0.01 -0.01 0.01 0.00 1156
17720828 462 -0.00 -0.01 0.00 0.00 0.00 1190
17725828 454 -0.01 -0.01 0.00 0.00 0.00 1192
17730828 480 0.02 0.01 -0.01 0.01 0.00 1154
17735828 473 0.01 0.00 -0.00 0.00 0.00 1157
17740828 451 -0.02 -0.02 0.00 0.00 0.00 1191
17745828 471 0.01 0.01 -0.01 0.01 0.00 1157
17750828 477 0.01 0.01 -0.01 0.01 0.00 1154
17755828 451 -0.02 -0.02 0.00 0.00 0.00 1193
17760828 458 -0.01 -0.00 -0.00 0.00 0.00 1225
17765828 482 0.02 0.02 -0.01 0.01 0.00 1157
17770828 457 -0.01 -0.01 0.01 0.01 0.00 1190
17775828 453 -0.01 -0.01 0.01 0.01 0.00 1192
17780828 484 0.02 0.02 -0.00 0.00 0.00 1154
17785828 475 0.01 0.00 0.00 0.00 0.00 1121
17790828 450 -0.02 -0.02 0.01 0.01 0.00 1190
17795829 472 0.01 0.01 -0.00 0.00 0.00 1157
17800829 483 0.02 0.01 -0.01 0.01 0.00 1155
17805829 454 -0.01 -0.02 0.01 0.01 0.01 1192
17810829 465 -0.00 -0.00 0.00 0.00 0.01 1190
17815829 488 0.02 0.02 -0.01 0.01 0.01 1157
17820829 463 -0.00 -0.01 0.00 0.00 0.00 1190
17825829 457 -0.01 -0.01 0.00 0.00 0.00 1192
17830829 483 0.02 0.02 -0.01 0.01 0.01 1155
17835829 474 0.01 0.00 -0.00 0.00 0.00 1157
17840829 450 -0.02 -0.02 0.01 0.01 0.00 1190
17845829 475 0.01 0.01 -0.00 0.00 0.00 1157
17850829 479 0.01 0.01 -0.00 0.00 0.00 1155
17855829 448 -0.02 -0.02 0.01 0.01 0.00 1193
17860829 456 -0.01 -0.00 -0.00 0.00 0.00 1225
17865829 483 0.02 0.02 -0.01 0.01 0.00 1157
17870829 463 -0.00 -0.00 0.01 0.01 0.00 1190
17875829 449 -0.02 -0.01 0.01 0.01 0.01 1192
17880829 478 0.01 0.02 -0.00 0.00 0.01 1155
17885829 471 0.01 0.00 -0.00 0.00 0.01 1157
17890829 449 -0.02 -0.02 0.01 0.01 0.01 1190
17895829 471 0.01 0.01 -0.00 0.00 0.00 1157
17900829 478 0.01 0.01 -0.00 0.00 0.00 1154
17905829 454 -0.01 -0.02 0.01 0.01 0.00 1192
17910829 459 -0.01 -0.00 -0.00 0.00 0.00 1225
17915829 480 0.02 0.02 -0.01 0.01 0.00 1157
17920829 460 -0.01 -0.01 0.00 0.00 0.00 1190
17925829 449 -0.02 -0.01 0.00 0.00 0.00 1193
17930829 475 0.01 0.01 -0.01 0.01 0.00 1154
17935829 465 -0.00 -0.00 -0.00 0.00 0.00 1227
17940829 447 -0.02 -0.01 0.01 0.01 0.00 1190
17945829 473 0.01 0.01 -0.00 0.00 0.00 1157
17950829 476 0.01 0.01 0.00 0.00 0.00 1120
17955829 456 -0.01 -0.01 0.01 0.01 0.00 1192
17960829 481 0.02 0.01 0.00 0.00 0.00 1119
17965830 584 0.13 0.09 0.01 0.01 0.00 1122
17970830 661 0.21 0.09 0.06 0.06 0.01 1120
17975830 810 0.37 0.13 0.11 0.11 0.02 1122
17980830 956 0.53 0.13 0.13 0.13 0.03 1120
17985830 998 0.57 0.02 0.11 0.11 0.04 1122
17990830 1011 0.59 -0.08 0.04 0.04 0.05 1155
17995830 967 0.54 -0.17 -0.08 0.08 0.05 1193
18000830 872 0.44 -0.24 -0.18 0.18 0.07 1191
18005830 448 -0.02 -0.51 -0.28 0.28 0.10 1228
18010830 136 -0.35 -0.48 -0.42 0.42 0.14 1226
18015830 44 -0.45 -0.20 -0.47 0.47 0.19 1229
18020830 114 -0.38 0.13 -0.26 0.26 0.21 1191
18025830 395 -0.08 0.48 0.12 0.12 0.21 1158
18030830 576 0.12 0.53 0.44 0.44 0.24 1121
18035830 407 -0.06 0.22 0.52 0.52 0.28 1158
18040830 133 -0.36 -0.06 0.30 0.30 0.31 1191
18045830 216 -0.27 0.07 0.01 0.01 0.30 1158
18050830 303 -0.17 0.14 -0.03 0.03 0.29 1191
18055830 408 -0.06 0.16 0.12 0.12 0.27 1158
18060830 780 0.34 0.35 0.23 0.23 0.25 1120
18065830 775 0.33 0.09 0.25 0.25 0.23 1123
18070830 329 -0.15 -0.43 0.10 0.10 0.21 1191
18075830 378 -0.09 -0.27 -0.24 0.24 0.22 1228
18080830 462 -0.00 -0.12 -0.39 0.39 0.22 1225
18085830 339 -0.14 -0.19 -0.22 0.22 0.19 1228
18090830 254 -0.23 -0.17 -0.10 0.10 0.17 1226
18095830 443 -0.02 0.08 -0.12 0.12 0.18 1193
18100830 421 -0.05 0.05 -0.03 0.03 0.18 1191
18105830 199 -0.29 -0.13 0.06 0.06 0.17 1193
18110830 210 -0.27 -0.02 -0.02 0.02 0.15 1226
18115830 242 -0.24 0.07 -0.07 0.07 0.13 1193
18120830 226 -0.26 0.07 0.02 0.02 0.13 1156
18125831 418 -0.05 0.23 0.13 0.13 0.12 1158
18130830 639 0.19 0.31 0.21 0.21 0.10 1120
18135831 426 -0.04 -0.04 0.23 0.23 0.10 1193
18140831 313 -0.16 -0.15 0.08 0.08 0.10 1190
18145831 436 -0.03 -0.01 -0.13 0.13 0.10 1228
18150831 428 -0.04 -0.04 -0.12 0.12 0.11 1226
18155831 357 -0.12 -0.10 -0.02 0.02 0.10 1228
18160831 401 -0.07 -0.03 -0.04 0.04 0.10 1226
18165831 410 -0.06 -0.02 -0.07 0.07 0.10 1228
18170831 401 -0.07 -0.02 -0.03 0.03 0.11 1225
18175831 228 -0.26 -0.15 -0.03 0.03 0.09 1228
18180831 234 -0.25 -0.05 -0.08 0.08 0.08 1226
18185831 599 0.14 0.30 -0.04 0.04 0.06 1157
18190831 480 0.02 0.06 0.14 0.14 0.07 1120
18195831 271 -0.21 -0.15 0.16 0.16 0.07 1193
18200831 408 -0.06 0.03 -0.04 0.04 0.06 1191
18205831 728 0.28 0.27 -0.06 0.06 0.07 1158
18210831 594 0.14 -0.00 0.14 0.14 0.08 1155
18215831 352 -0.12 -0.24 0.12 0.12 0.08 1193
18220831 288 -0.19 -0.19 -0.15 0.15 0.09 1226
18225831 299 -0.18 -0.08 -0.27 0.27 0.12 1228
18230831 240 -0.24 -0.06 -0.13 0.13 0.12 1226
18235831 280 -0.20 0.05 -0.00 0.00 0.12 1193
18240831 497 0.03 0.24 0.07 0.07 0.11 1120
18245831 494 0.03 0.14 0.16 0.16 0.11 1122
18250831 220 -0.26 -0.15 0.15 0.15 0.12 1191
18255831 240 -0.24 -0.05 -0.03 0.03 0.12 1228
18260831 582 0.13 0.26 -0.08 0.08 0.12 1155
18265831 765 0.32 0.27 0.13 0.13 0.12 1123
18270831 671 0.22 0.00 0.28 0.28 0.13 1120
18275831 638 0.19 -0.10 0.12 0.12 0.12 1157
18280831 421 -0.05 -0.29 -0.15 0.15 0.12 1226
18285831 180 -0.31 -0.38 -0.30 0.30 0.15 1228
18290832 426 -0.04 0.02 -0.30 0.30 0.17 1191
18295832 633 0.18 0.20 -0.09 0.09 0.16 1158
18300832 311 -0.17 -0.14 0.12 0.12 0.16 1190
18305832 205 -0.28 -0.13 0.05 0.05 0.16 1193
18310832 214 -0.27 -0.01 -0.14 0.14 0.17 1226
18315832 250 -0.23 0.09 -0.09 0.09 0.16 1193
18320832 339 -0.14 0.18 0.10 0.10 0.15 1155
18325832 656 0.20 0.38 0.23 0.23 0.16 1123
18330832 909 0.48 0.38 0.32 0.32 0.17 1120
18335832 760 0.32 -0.00 0.33 0.33 0.18 1158
18340832 617 0.16 -0.21 0.11 0.11 0.16 1155
18345832 527 0.07 -0.27 -0.20 0.20 0.17 1194
18350832 280 -0.20 -0.39 -0.34 0.34 0.19 1226
18355832 214 -0.27 -0.25 -0.34 0.34 0.22 1229
18360832 349 -0.13 0.02 -0.25 0.25 0.23 1191
18365832 453 -0.01 0.15 -0.04 0.04 0.23 1193
18370832 476 0.01 0.14 0.15 0.15 0.23 1120
18375832 255 -0.23 -0.07 0.15 0.15 0.22 1193
18380832 274 -0.21 0.02 0.02 0.02 0.19 1155
18385832 511 0.05 0.24 -0.01 0.01 0.16 1157
18390832 637 0.18 0.24 0.15 0.15 0.17 1120
18395832 581 0.12 0.05 0.26 0.26 0.17 1122
18400832 606 0.15 0.01 0.14 0.14 0.15 1120
18405832 631 0.18 -0.03 -0.02 0.02 0.12 1193
18410832 454 -0.01 -0.21 -0.08 0.08 0.10 1226
18415832 388 -0.08 -0.19 -0.14 0.14 0.11 1228
18420832 225 -0.26 -0.23 -0.22 0.22 0.12 1226
18425832 185 -0.30 -0.12 -0.22 0.22 0.13 1228
18430833 276 -0.20 0.07 -0.12 0.12 0.14 1191
18435832 493 0.03 0.27 0.06 0.06 0.14 1122
18440832 693 0.24 0.33 0.25 0.25 0.15 1120
18445833 467 0.00 -0.02 0.29 0.29 0.15 1158
18450833 477 0.01 -0.03 0.11 0.11 0.15 1155
18455833 514 0.05 -0.01 -0.07 0.07 0.16 1193
18460833 380 -0.09 -0.14 -0.08 0.08 0.16 1226
18465833 354 -0.12 -0.10 -0.07 0.07 0.15 1228
18470833 453 -0.01 0.03 -0.09 0.09 0.14 1190
18475833 461 -0.00 0.03 -0.03 0.03 0.12 1193
18480833 455 -0.01 0.01 0.04 0.04 0.11 1155
18485833 418 -0.05 -0.02 0.03 0.03 0.11 1193
18490833 430 -0.04 -0.00 -0.02 0.02 0.08 1225
18495833 478 0.01 0.04 -0.01 0.01 0.06 1157
18500833 394 -0.08 -0.05 0.01 0.01 0.05 1190
18505833 304 -0.17 -0.09 -0.01 0.01 0.04 1228
18510833 355 -0.12 0.01 -0.06 0.06 0.04 1191
18515833 419 -0.05 0.08 -0.03 0.03 0.03 1193
18520833 415 -0.05 0.05 0.06 0.06 0.03 1156
18525833 444 -0.02 0.05 0.08 0.08 0.04 1158
18530833 495 0.03 0.06 0.06 0.06 0.04 1120
18535833 480 0.02 0.01 0.04 0.04 0.04 1123
18540833 458 -0.01 -0.03 0.02 0.02 0.04 1190
18545833 486 0.02 -0.01 -0.02 0.02 0.04 1193
18550833 508 0.05 -0.01 -0.03 0.03 0.04 1191
18555833 480 0.02 -0.05 -0.02 0.02 0.04 1193
18560833 451 -0.02 -0.06 -0.03 0.03 0.04 1226
18565833 461 -0.00 -0.03 -0.05 0.05 0.04 1228
18570833 435 -0.03 -0.04 -0.05 0.05 0.04 1226
18575833 436 -0.03 -0.01 -0.03 0.03 0.03 1228
18580833 481 0.02 0.04 -0.01 0.01 0.03 1155
18585833 486 0.02 0.03 0.02 0.02 0.03 1122
18590833 465 -0.00 0.00 0.04 0.04 0.03 1155
18595833 488 0.02 0.02 0.02 0.02 0.03 1122
18600833 504 0.04 0.03 0.01 0.01 0.03 1120
18605834 470 0.00 -0.02 0.01 0.01 0.03 1157
18610834 482 0.02 -0.00 0.00 0.00 0.02 1155
18615834 504 0.04 0.01 -0.01 0.01 0.02 1157
18620834 487 0.02 -0.01 0.00 0.00 0.02 1155
18625834 479 0.01 -0.01 0.00 0.00 0.01 1157
18630834 505 0.04 0.01 -0.01 0.01 0.01 1154
18635834 498 0.03 -0.00 -0.00 0.00 0.01 1192
18640834 480 0.02 -0.02 0.00 0.00 0.01 1155
18645834 500 0.04 0.01 -0.01 0.01 0.01 1157
18650834 514 0.05 0.01 -0.00 0.00 0.01 1155
18655834 489 0.03 -0.02 0.01 0.01 0.00 1157
18660834 499 0.04 -0.00 0.00 0.00 0.00 1155
18665834 524 0.06 0.02 -0.00 0.00 0.00 1157
18670834 505 0.04 -0.01 0.00 0.00 0.00 1155
18675834 494 0.03 -0.01 0.00 0.00 0.00 1157
18680834 522 0.06 0.01 -0.01 0.01 0.00 1155
18685834 515 0.05 0.00 -0.00 0.00 0.00 1157
18690834 492 0.03 -0.02 0.00 0.00 0.00 1155
18695834 512 0.05 0.01 -0.01 0.01 0.00 1157
18700834 518 0.06 0.01 -0.01 0.01 0.00 1154
18705834 492 0.03 -0.02 0.00 0.00 0.00 1157
18710834 501 0.04 0.00 -0.00 0.00 0.00 1154
18715834 523 0.06 0.02 -0.00 0.00 0.00 1157
18720834 502 0.04 -0.01 0.01 0.01 0.00 1155
18725834 496 0.03 -0.01 0.01 0.01 0.00 1157
18730834 521 0.06 0.02 -0.00 0.00 0.00 1155
18735834 511 0.05 0.00 0.00 0.00 0.00 1122
18740834 494 0.03 -0.01 0.01 0.01 0.00 1155
18745834 519 0.06 0.01 -0.00 0.00 0.00 1157
18750834 524 0.06 0.01 -0.00 0.00 0.00 1154
18755834 493 0.03 -0.02 0.01 0.01 0.00 1157
18760834 496 0.03 -0.01 -0.00 0.00 0.00 1190
18765834 525 0.06 0.02 -0.01 0.01 0.01 1157
18770835 507 0.04 -0.00 0.00 0.00 0.00 1155
18775835 493 0.03 -0.01 0.01 0.01 0.00 1157
18780835 522 0.06 0.02 -0.00 0.00 0.00 1155
18785835 510 0.05 -0.00 -0.00 0.00 0.00 1192
18790835 493 0.03 -0.01 0.00 0.00 0.00 1155
18795835 518 0.06 0.01 -0.00 0.00 0.00 1157
18800835 527 0.07 0.01 -0.00 0.00 0.00 1154
18805835 502 0.04 -0.01 0.01 0.01 0.00 1157
18810835 511 0.05 -0.00 0.00 0.00 0.00 1155
18815835 534 0.07 0.02 -0.01 0.01 0.00 1157
18820835 514 0.05 -0.01 0.00 0.00 0.00 1155
18825835 506 0.04 -0.01 0.00 0.00 0.00 1157
18830835 533 0.07 0.01 -0.01 0.01 0.00 1154
18835835 522 0.06 -0.00 -0.00 0.00 0.00 1193
18840835 499 0.04 -0.02 0.00 0.00 0.00 1155
18845835 520 0.06 0.01 -0.01 0.01 0.00 1157
18850835 528 0.07 0.01 -0.01 0.01 0.01 1155
18855835 503 0.04 -0.01 0.01 0.01 0.00 1157
18860835 511 0.05 0.00 0.00 0.00 0.00 1120
