33403770 0.00 0.0 0.0 0.0
33403770 0.00 0.0 0.0 0.0
33403770 0.00 0.0 0.0 0.0
33403770 0.00 0.0 0.0 0.0
33403770 0.00 0.0 0.0 0.0
33403770 0.00 0.0 0.0 0.0
33403770 0.00 0.0 0.0 0.0
33403770 0.00 0.0 0.0 0.0
33408769 0.00 0.0 0.0 0.0
33408769 0.00 0.0 0.0 0.0
33408769 0.00 0.0 0.0 0.0
33408769 0.00 0.0 0.0 0.0
33408769 0.00 0.0 0.0 0.0
33408769 0.00 0.0 0.0 0.0
33408769 0.00 0.0 0.0 0.0
33408769 0.00 0.0 0.0 0.0
33413768 0.00 0.0 -1.32747818816 -0.701885019027
33413768 0.00 0.0 -1.32747818816 -0.701885019027
33413768 0.00 0.0 -1.32747818816 -0.701885019027
33413768 0.00 0.0 -1.32747818816 -0.701885019027
33413768 0.00 0.0 -1.32747818816 -0.701885019027
33413768 0.00 0.0 -1.32747818816 -0.701885019027
33413768 0.00 0.0 -1.32747818816 -0.701885019027
33413768 0.00 0.0 -1.32747818816 -0.701885019027
33418768 0.00 0.0 -1.32747818816 -0.701885019027
33418768 0.00 0.0 -1.32747818816 -0.701885019027
33418768 0.00 0.0 -1.32747818816 -0.701885019027
33418768 0.00 0.0 -1.32747818816 -0.701885019027
33418768 0.00 0.0 -1.32747818816 -0.701885019027
33418768 0.00 0.0 -1.32747818816 -0.701885019027
33418768 0.00 0.0 -1.32747818816 -0.701885019027
33418768 0.00 0.0 -1.32747818816 -0.701885019027
33423768 0.00 1.0567418295 -2.66258556131 1.33510737315
33423768 0.00 1.0567418295 -2.66258556131 1.33510737315
33423768 0.00 1.0567418295 -2.66258556131 1.33510737315
33423768 0.00 1.0567418295 -2.66258556131 1.33510737315
33423768 0.00 1.0567418295 -2.66258556131 1.33510737315
33423768 0.00 1.0567418295 -2.66258556131 1.33510737315
33423768 0.00 1.0567418295 -2.66258556131 1.33510737315
33423768 0.00 1.0567418295 -2.66258556131 1.33510737315
33428768 0.00 1.0567418295 -2.66258556131 1.33510737315
33428768 0.00 1.0567418295 -2.66258556131 1.33510737315
33428768 0.00 1.0567418295 -2.66258556131 1.33510737315
33428768 0.00 1.0567418295 -2.66258556131 1.33510737315
33428768 0.00 1.0567418295 -2.66258556131 1.33510737315
33428768 0.00 1.0567418295 -2.66258556131 1.33510737315
33428768 0.00 1.0567418295 -2.66258556131 1.33510737315
33428768 0.00 1.0567418295 -2.66258556131 1.33510737315
33433768 0.00 1.06642762537 -1.81574602748 -0.297538214588
33433768 0.00 1.06642762537 -1.81574602748 -0.297538214588
33433768 0.00 1.06642762537 -1.81574602748 -0.297538214588
33433768 0.00 1.06642762537 -1.81574602748 -0.297538214588
33433768 0.00 1.06642762537 -1.81574602748 -0.297538214588
33433768 0.00 1.06642762537 -1.81574602748 -0.297538214588
33433768 0.00 1.06642762537 -1.81574602748 -0.297538214588
33433768 0.00 1.06642762537 -1.81574602748 -0.297538214588
33438768 0.00 1.06642762537 -1.81574602748 -0.297538214588
33438768 0.00 1.06642762537 -1.81574602748 -0.297538214588
33438768 0.00 1.06642762537 -1.81574602748 -0.297538214588
33438768 0.00 1.06642762537 -1.81574602748 -0.297538214588
33438768 0.00 1.06642762537 -1.81574602748 -0.297538214588
33438768 0.00 1.06642762537 -1.81574602748 -0.297538214588
33438768 0.00 1.06642762537 -1.81574602748 -0.297538214588
33438768 0.00 1.06642762537 -1.81574602748 -0.297538214588
33443768 0.00 1.06269963051 -1.82337521247 -0.282279844609
33443768 0.00 1.06269963051 -1.82337521247 -0.282279844609
33443768 0.00 1.06269963051 -1.82337521247 -0.282279844609
33443768 0.00 1.06269963051 -1.82337521247 -0.282279844609
33443768 0.00 1.06269963051 -1.82337521247 -0.282279844609
33443768 0.00 1.06269963051 -1.82337521247 -0.282279844609
33443768 0.00 1.06269963051 -1.82337521247 -0.282279844609
33443768 0.00 1.06269963051 -1.82337521247 -0.282279844609
33448768 0.00 1.06269963051 -1.82337521247 -0.282279844609
33448768 0.00 1.06269963051 -1.82337521247 -0.282279844609
33448768 0.00 1.06269963051 -1.82337521247 -0.282279844609
33448768 0.00 1.06269963051 -1.82337521247 -0.282279844609
33448768 0.00 1.06269963051 -1.82337521247 -0.282279844609
33448768 0.00 1.06269963051 -1.82337521247 -0.282279844609
33448768 0.00 1.06269963051 -1.82337521247 -0.282279844609
33448768 0.00 1.06269963051 -1.82337521247 -0.282279844609
33453768 0.00 1.06541674682 -1.90729624736 -0.0915502198731
33453768 0.00 1.06541674682 -1.90729624736 -0.0915502198731
33453768 0.00 1.06541674682 -1.90729624736 -0.0915502198731
33453768 0.00 1.06541674682 -1.90729624736 -0.0915502198731
33453768 0.00 1.06541674682 -1.90729624736 -0.0915502198731
33453768 0.00 1.06541674682 -1.90729624736 -0.0915502198731
33453768 0.00 1.06541674682 -1.90729624736 -0.0915502198731
33453768 0.00 1.06541674682 -1.90729624736 -0.0915502198731
33458768 0.00 1.06541674682 -1.90729624736 -0.0915502198731
33458768 0.00 1.06541674682 -1.90729624736 -0.0915502198731
33458768 0.00 1.06541674682 -1.90729624736 -0.0915502198731
33458768 0.00 1.06541674682 -1.90729624736 -0.0915502198731
33458768 0.00 1.06541674682 -1.90729624736 -0.0915502198731
33458768 0.00 1.06541674682 -1.90729624736 -0.0915502198731
33458768 0.00 1.06541674682 -1.90729624736 -0.0915502198731
33458768 0.00 1.06541674682 -1.90729624736 -0.0915502198731
33463768 0.00 1.06224486499 -1.92255461734 -0.160212884778
33463768 0.00 1.06224486499 -1.92255461734 -0.160212884778
33463768 0.00 1.06224486499 -1.92255461734 -0.160212884778
33463768 0.00 1.06224486499 -1.92255461734 -0.160212884778
33463768 0.00 1.06224486499 -1.92255461734 -0.160212884778
33463768 0.00 1.06224486499 -1.92255461734 -0.160212884778
33463768 0.00 1.06224486499 -1.92255461734 -0.160212884778
33463768 0.00 1.06224486499 -1.92255461734 -0.160212884778
33468768 0.00 1.06224486499 -1.92255461734 -0.160212884778
33468768 0.00 1.06224486499 -1.92255461734 -0.160212884778
33468768 0.00 1.06224486499 -1.92255461734 -0.160212884778
33468768 0.00 1.06224486499 -1.92255461734 -0.160212884778
33468768 0.00 1.06224486499 -1.92255461734 -0.160212884778
33468768 0.00 1.06224486499 -1.92255461734 -0.160212884778
33468768 0.00 1.06224486499 -1.92255461734 -0.160212884778
33468768 0.00 1.06224486499 -1.92255461734 -0.160212884778
33473768 0.00 1.06089217008 -1.89966706237 -0.13732532981
33473768 0.00 1.06089217008 -1.89966706237 -0.13732532981
33473768 0.00 1.06089217008 -1.89966706237 -0.13732532981
33473768 0.00 1.06089217008 -1.89966706237 -0.13732532981
33473768 0.00 1.06089217008 -1.89966706237 -0.13732532981
33473768 0.00 1.06089217008 -1.89966706237 -0.13732532981
33473768 0.00 1.06089217008 -1.89966706237 -0.13732532981
33473768 0.00 1.06089217008 -1.89966706237 -0.13732532981
33478768 0.00 1.06089217008 -1.89966706237 -0.13732532981
33478768 0.00 1.06089217008 -1.89966706237 -0.13732532981
33478768 0.00 1.06089217008 -1.89966706237 -0.13732532981
33478768 0.00 1.06089217008 -1.89966706237 -0.13732532981
33478768 0.00 1.06089217008 -1.89966706237 -0.13732532981
33478768 0.00 1.06089217008 -1.89966706237 -0.13732532981
33478768 0.00 1.06089217008 -1.89966706237 -0.13732532981
33478768 0.00 1.06089217008 -1.89966706237 -0.13732532981
33483768 0.00 1.06271487405 -1.88440869239 -0.144954514799
33483768 0.00 1.06271487405 -1.88440869239 -0.144954514799
33483768 0.00 1.06271487405 -1.88440869239 -0.144954514799
33483768 0.00 1.06271487405 -1.88440869239 -0.144954514799
33483768 0.00 1.06271487405 -1.88440869239 -0.144954514799
33483768 0.00 1.06271487405 -1.88440869239 -0.144954514799
33483768 0.00 1.06271487405 -1.88440869239 -0.144954514799
33483768 0.00 1.06271487405 -1.88440869239 -0.144954514799
33488768 0.00 1.06271487405 -1.88440869239 -0.144954514799
33488768 0.00 1.06271487405 -1.88440869239 -0.144954514799
33488768 0.00 1.06271487405 -1.88440869239 -0.144954514799
33488768 0.00 1.06271487405 -1.88440869239 -0.144954514799
33488768 0.00 1.06271487405 -1.88440869239 -0.144954514799
33488768 0.00 1.06271487405 -1.88440869239 -0.144954514799
33488768 0.00 1.06271487405 -1.88440869239 -0.144954514799
33488768 0.00 1.06271487405 -1.88440869239 -0.144954514799
33493768 0.00 1.06411851821 -1.78522928753 -0.175471254757
33493768 0.00 1.06411851821 -1.78522928753 -0.175471254757
33493768 0.00 1.06411851821 -1.78522928753 -0.175471254757
33493768 0.00 1.06411851821 -1.78522928753 -0.175471254757
33493768 0.00 1.06411851821 -1.78522928753 -0.175471254757
33493768 0.00 1.06411851821 -1.78522928753 -0.175471254757
33493768 0.00 1.06411851821 -1.78522928753 -0.175471254757
33493768 0.00 1.06411851821 -1.78522928753 -0.175471254757
33498768 0.00 1.06411851821 -1.78522928753 -0.175471254757
33498768 0.00 1.06411851821 -1.78522928753 -0.175471254757
33498768 0.00 1.06411851821 -1.78522928753 -0.175471254757
33498768 0.00 1.06411851821 -1.78522928753 -0.175471254757
33498768 0.00 1.06411851821 -1.78522928753 -0.175471254757
33498768 0.00 1.06411851821 -1.78522928753 -0.175471254757
33498768 0.00 1.06411851821 -1.78522928753 -0.175471254757
33498768 0.00 1.06411851821 -1.78522928753 -0.175471254757
33503768 0.00 1.06491937313 -1.8767795074 -0.122066959831
33503768 0.00 1.06491937313 -1.8767795074 -0.122066959831
33503768 0.00 1.06491937313 -1.8767795074 -0.122066959831
33503768 0.00 1.06491937313 -1.8767795074 -0.122066959831
33503768 0.00 1.06491937313 -1.8767795074 -0.122066959831
33503768 0.00 1.06491937313 -1.8767795074 -0.122066959831
33503768 0.00 1.06491937313 -1.8767795074 -0.122066959831
33503768 0.00 1.06491937313 -1.8767795074 -0.122066959831
33508768 0.00 1.06491937313 -1.8767795074 -0.122066959831
33508768 0.00 1.06491937313 -1.8767795074 -0.122066959831
33508768 0.00 1.06491937313 -1.8767795074 -0.122066959831
33508768 0.00 1.06491937313 -1.8767795074 -0.122066959831
33508768 0.00 1.06491937313 -1.8767795074 -0.122066959831
33508768 0.00 1.06491937313 -1.8767795074 -0.122066959831
33508768 0.00 1.06491937313 -1.8767795074 -0.122066959831
33508768 0.00 1.06491937313 -1.8767795074 -0.122066959831
33513769 0.00 1.06347211026 -1.88440869239 -0.213617179704
33513769 0.00 1.06347211026 -1.88440869239 -0.213617179704
33513769 0.00 1.06347211026 -1.88440869239 -0.213617179704
33513769 0.00 1.06347211026 -1.88440869239 -0.213617179704
33513769 0.00 1.06347211026 -1.88440869239 -0.213617179704
33513769 0.00 1.06347211026 -1.88440869239 -0.213617179704
33513769 0.00 1.06347211026 -1.88440869239 -0.213617179704
33513769 0.00 1.06347211026 -1.88440869239 -0.213617179704
33518769 0.00 1.06347211026 -1.88440869239 -0.213617179704
33518769 0.00 1.06347211026 -1.88440869239 -0.213617179704
33518769 0.00 1.06347211026 -1.88440869239 -0.213617179704
33518769 0.00 1.06347211026 -1.88440869239 -0.213617179704
33518769 0.00 1.06347211026 -1.88440869239 -0.213617179704
33518769 0.00 1.06347211026 -1.88440869239 -0.213617179704
33518769 0.00 1.06347211026 -1.88440869239 -0.213617179704
33518769 0.00 1.06347211026 -1.88440869239 -0.213617179704
33523769 0.00 1.06504404482 -1.84626276744 -0.160212884778
33523769 0.00 1.06504404482 -1.84626276744 -0.160212884778
33523769 0.00 1.06504404482 -1.84626276744 -0.160212884778
33523769 0.00 1.06504404482 -1.84626276744 -0.160212884778
33523769 0.00 1.06504404482 -1.84626276744 -0.160212884778
33523769 0.00 1.06504404482 -1.84626276744 -0.160212884778
33523769 0.00 1.06504404482 -1.84626276744 -0.160212884778
33523769 0.00 1.06504404482 -1.84626276744 -0.160212884778
33528768 0.00 1.06504404482 -1.84626276744 -0.160212884778
33528768 0.00 1.06504404482 -1.84626276744 -0.160212884778
33528768 0.00 1.06504404482 -1.84626276744 -0.160212884778
33528768 0.00 1.06504404482 -1.84626276744 -0.160212884778
33528768 0.00 1.06504404482 -1.84626276744 -0.160212884778
33528768 0.00 1.06504404482 -1.84626276744 -0.160212884778
33528768 0.00 1.06504404482 -1.84626276744 -0.160212884778
33528768 0.00 1.06504404482 -1.84626276744 -0.160212884778
33533769 0.00 1.06458251062 -1.89203787738 -0.221246364693
33533769 0.00 1.06458251062 -1.89203787738 -0.221246364693
33533769 0.00 1.06458251062 -1.89203787738 -0.221246364693
33533769 0.00 1.06458251062 -1.89203787738 -0.221246364693
33533769 0.00 1.06458251062 -1.89203787738 -0.221246364693
33533769 0.00 1.06458251062 -1.89203787738 -0.221246364693
33533769 0.00 1.06458251062 -1.89203787738 -0.221246364693
33533769 0.00 1.06458251062 -1.89203787738 -0.221246364693
33538769 0.00 1.06458251062 -1.89203787738 -0.221246364693
33538769 0.00 1.06458251062 -1.89203787738 -0.221246364693
33538769 0.00 1.06458251062 -1.89203787738 -0.221246364693
33538769 0.00 1.06458251062 -1.89203787738 -0.221246364693
33538769 0.00 1.06458251062 -1.89203787738 -0.221246364693
33538769 0.00 1.06458251062 -1.89203787738 -0.221246364693
33538769 0.00 1.06458251062 -1.89203787738 -0.221246364693
33538769 0.00 1.06458251062 -1.89203787738 -0.221246364693
33543769 0.00 1.06352143591 -1.86915032241 -0.183100439746
33543769 0.00 1.06352143591 -1.86915032241 -0.183100439746
33543769 0.00 1.06352143591 -1.86915032241 -0.183100439746
33543769 0.00 1.06352143591 -1.86915032241 -0.183100439746
33543769 0.00 1.06352143591 -1.86915032241 -0.183100439746
33543769 0.00 1.06352143591 -1.86915032241 -0.183100439746
33543769 0.00 1.06352143591 -1.86915032241 -0.183100439746
33543769 0.00 1.06352143591 -1.86915032241 -0.183100439746
33548768 0.00 1.06352143591 -1.86915032241 -0.183100439746
33548768 0.00 1.06352143591 -1.86915032241 -0.183100439746
33548768 0.00 1.06352143591 -1.86915032241 -0.183100439746
33548768 0.00 1.06352143591 -1.86915032241 -0.183100439746
33548768 0.00 1.06352143591 -1.86915032241 -0.183100439746
33548768 0.00 1.06352143591 -1.86915032241 -0.183100439746
33548768 0.00 1.06352143591 -1.86915032241 -0.183100439746
33548768 0.00 1.06352143591 -1.86915032241 -0.183100439746
33553769 0.00 1.06453983409 -1.8767795074 -0.198358809725
33553769 0.00 1.06453983409 -1.8767795074 -0.198358809725
33553769 0.00 1.06453983409 -1.8767795074 -0.198358809725
33553769 0.00 1.06453983409 -1.8767795074 -0.198358809725
33553769 0.00 1.06453983409 -1.8767795074 -0.198358809725
33553769 0.00 1.06453983409 -1.8767795074 -0.198358809725
33553769 0.00 1.06453983409 -1.8767795074 -0.198358809725
33553769 0.00 1.06453983409 -1.8767795074 -0.198358809725
33558769 0.00 1.06453983409 -1.8767795074 -0.198358809725
33558769 0.00 1.06453983409 -1.8767795074 -0.198358809725
33558769 0.00 1.06453983409 -1.8767795074 -0.198358809725
33558769 0.00 1.06453983409 -1.8767795074 -0.198358809725
33558769 0.00 1.06453983409 -1.8767795074 -0.198358809725
33558769 0.00 1.06453983409 -1.8767795074 -0.198358809725
33558769 0.00 1.06453983409 -1.8767795074 -0.198358809725
33558769 0.00 1.06453983409 -1.8767795074 -0.198358809725
33563769 0.00 1.06426652795 -1.8767795074 -0.221246364693
33563769 0.00 1.06426652795 -1.8767795074 -0.221246364693
33563769 0.00 1.06426652795 -1.8767795074 -0.221246364693
33563769 0.00 1.06426652795 -1.8767795074 -0.221246364693
33563769 0.00 1.06426652795 -1.8767795074 -0.221246364693
33563769 0.00 1.06426652795 -1.8767795074 -0.221246364693
33563769 0.00 1.06426652795 -1.8767795074 -0.221246364693
33563769 0.00 1.06426652795 -1.8767795074 -0.221246364693
33568769 0.00 1.06426652795 -1.8767795074 -0.221246364693
33568769 0.00 1.06426652795 -1.8767795074 -0.221246364693
33568769 0.00 1.06426652795 -1.8767795074 -0.221246364693
33568769 0.00 1.06426652795 -1.8767795074 -0.221246364693
33568769 0.00 1.06426652795 -1.8767795074 -0.221246364693
33568769 0.00 1.06426652795 -1.8767795074 -0.221246364693
33568769 0.00 1.06426652795 -1.8767795074 -0.221246364693
33568769 0.00 1.06426652795 -1.8767795074 -0.221246364693
33573769 0.00 1.06417856438 -1.8767795074 -0.122066959831
33573769 0.00 1.06417856438 -1.8767795074 -0.122066959831
33573769 0.00 1.06417856438 -1.8767795074 -0.122066959831
33573769 0.00 1.06417856438 -1.8767795074 -0.122066959831
33573769 0.00 1.06417856438 -1.8767795074 -0.122066959831
33573769 0.00 1.06417856438 -1.8767795074 -0.122066959831
33573769 0.00 1.06417856438 -1.8767795074 -0.122066959831
33573769 0.00 1.06417856438 -1.8767795074 -0.122066959831
33578769 0.00 1.06417856438 -1.8767795074 -0.122066959831
33578769 0.00 1.06417856438 -1.8767795074 -0.122066959831
33578769 0.00 1.06417856438 -1.8767795074 -0.122066959831
33578769 0.00 1.06417856438 -1.8767795074 -0.122066959831
33578769 0.00 1.06417856438 -1.8767795074 -0.122066959831
33578769 0.00 1.06417856438 -1.8767795074 -0.122066959831
33578769 0.00 1.06417856438 -1.8767795074 -0.122066959831
33578769 0.00 1.06417856438 -1.8767795074 -0.122066959831
33583769 0.00 1.06584139421 -1.81574602748 -0.106808589852
33583769 0.00 1.06584139421 -1.81574602748 -0.106808589852
33583769 0.00 1.06584139421 -1.81574602748 -0.106808589852
33583769 0.00 1.06584139421 -1.81574602748 -0.106808589852
33583769 0.00 1.06584139421 -1.81574602748 -0.106808589852
33583769 0.00 1.06584139421 -1.81574602748 -0.106808589852
33583769 0.00 1.06584139421 -1.81574602748 -0.106808589852
33583769 0.00 1.06584139421 -1.81574602748 -0.106808589852
33588769 0.00 1.06584139421 -1.81574602748 -0.106808589852
33588769 0.00 1.06584139421 -1.81574602748 -0.106808589852
33588769 0.00 1.06584139421 -1.81574602748 -0.106808589852
33588769 0.00 1.06584139421 -1.81574602748 -0.106808589852
33588769 0.00 1.06584139421 -1.81574602748 -0.106808589852
33588769 0.00 1.06584139421 -1.81574602748 -0.106808589852
33588769 0.00 1.06584139421 -1.81574602748 -0.106808589852
33588769 0.00 1.06584139421 -1.81574602748 -0.106808589852
33593769 0.00 1.06305247206 -1.78522928753 -0.198358809725
33593769 0.00 1.06305247206 -1.78522928753 -0.198358809725
33593769 0.00 1.06305247206 -1.78522928753 -0.198358809725
33593769 0.00 1.06305247206 -1.78522928753 -0.198358809725
33593769 0.00 1.06305247206 -1.78522928753 -0.198358809725
33593769 0.00 1.06305247206 -1.78522928753 -0.198358809725
33593769 0.00 1.06305247206 -1.78522928753 -0.198358809725
33593769 0.00 1.06305247206 -1.78522928753 -0.198358809725
33598769 0.00 1.06305247206 -1.78522928753 -0.198358809725
33598769 0.00 1.06305247206 -1.78522928753 -0.198358809725
33598769 0.00 1.06305247206 -1.78522928753 -0.198358809725
33598769 0.00 1.06305247206 -1.78522928753 -0.198358809725
33598769 0.00 1.06305247206 -1.78522928753 -0.198358809725
33598769 0.00 1.06305247206 -1.78522928753 -0.198358809725
33598769 0.00 1.06305247206 -1.78522928753 -0.198358809725
33598769 0.00 1.06305247206 -1.78522928753 -0.198358809725
33603769 0.00 1.06367362643 -1.83863358245 -0.228875549683
33603769 0.00 1.06367362643 -1.83863358245 -0.228875549683
33603769 0.00 1.06367362643 -1.83863358245 -0.228875549683
33603769 0.00 1.06367362643 -1.83863358245 -0.228875549683
33603769 0.00 1.06367362643 -1.83863358245 -0.228875549683
33603769 0.00 1.06367362643 -1.83863358245 -0.228875549683
33603769 0.00 1.06367362643 -1.83863358245 -0.228875549683
33603769 0.00 1.06367362643 -1.83863358245 -0.228875549683
33608769 0.00 1.06367362643 -1.83863358245 -0.228875549683
33608769 0.00 1.06367362643 -1.83863358245 -0.228875549683
33608769 0.00 1.06367362643 -1.83863358245 -0.228875549683
33608769 0.00 1.06367362643 -1.83863358245 -0.228875549683
33608769 0.00 1.06367362643 -1.83863358245 -0.228875549683
33608769 0.00 1.06367362643 -1.83863358245 -0.228875549683
33608769 0.00 1.06367362643 -1.83863358245 -0.228875549683
33608769 0.00 1.06367362643 -1.83863358245 -0.228875549683
33613769 0.00 1.06437637682 -1.8767795074 -0.114437774841
33613769 0.00 1.06437637682 -1.8767795074 -0.114437774841
33613769 0.00 1.06437637682 -1.8767795074 -0.114437774841
33613769 0.00 1.06437637682 -1.8767795074 -0.114437774841
33613769 0.00 1.06437637682 -1.8767795074 -0.114437774841
33613769 0.00 1.06437637682 -1.8767795074 -0.114437774841
33613769 0.00 1.06437637682 -1.8767795074 -0.114437774841
33613769 0.00 1.06437637682 -1.8767795074 -0.114437774841
33618769 0.00 1.06437637682 -1.8767795074 -0.114437774841
33618769 0.00 1.06437637682 -1.8767795074 -0.114437774841
33618769 0.00 1.06437637682 -1.8767795074 -0.114437774841
33618769 0.00 1.06437637682 -1.8767795074 -0.114437774841
33618769 0.00 1.06437637682 -1.8767795074 -0.114437774841
33618769 0.00 1.06437637682 -1.8767795074 -0.114437774841
33618769 0.00 1.06437637682 -1.8767795074 -0.114437774841
33618769 0.00 1.06437637682 -1.8767795074 -0.114437774841
33623769 0.00 1.06387322755 -1.89203787738 -0.0991794048625
33623769 0.00 1.06387322755 -1.89203787738 -0.0991794048625
33623769 0.00 1.06387322755 -1.89203787738 -0.0991794048625
33623769 0.00 1.06387322755 -1.89203787738 -0.0991794048625
33623769 0.00 1.06387322755 -1.89203787738 -0.0991794048625
33623769 0.00 1.06387322755 -1.89203787738 -0.0991794048625
33623769 0.00 1.06387322755 -1.89203787738 -0.0991794048625
33623769 0.00 1.06387322755 -1.89203787738 -0.0991794048625
33628769 0.00 1.06387322755 -1.89203787738 -0.0991794048625
33628769 0.00 1.06387322755 -1.89203787738 -0.0991794048625
33628769 0.00 1.06387322755 -1.89203787738 -0.0991794048625
33628769 0.00 1.06387322755 -1.89203787738 -0.0991794048625
33628769 0.00 1.06387322755 -1.89203787738 -0.0991794048625
33628769 0.00 1.06387322755 -1.89203787738 -0.0991794048625
33628769 0.00 1.06387322755 -1.89203787738 -0.0991794048625
33628769 0.00 1.06387322755 -1.89203787738 -0.0991794048625
33633769 0.00 1.06373992966 -1.86152113742 -0.183100439746
33633769 0.00 1.06373992966 -1.86152113742 -0.183100439746
33633769 0.00 1.06373992966 -1.86152113742 -0.183100439746
33633769 0.00 1.06373992966 -1.86152113742 -0.183100439746
33633769 0.00 1.06373992966 -1.86152113742 -0.183100439746
33633769 0.00 1.06373992966 -1.86152113742 -0.183100439746
33633769 0.00 1.06373992966 -1.86152113742 -0.183100439746
33633769 0.00 1.06373992966 -1.86152113742 -0.183100439746
33638769 0.00 1.06373992966 -1.86152113742 -0.183100439746
33638769 0.00 1.06373992966 -1.86152113742 -0.183100439746
33638769 0.00 1.06373992966 -1.86152113742 -0.183100439746
33638769 0.00 1.06373992966 -1.86152113742 -0.183100439746
33638769 0.00 1.06373992966 -1.86152113742 -0.183100439746
33638769 0.00 1.06373992966 -1.86152113742 -0.183100439746
33638769 0.00 1.06373992966 -1.86152113742 -0.183100439746
33638769 0.00 1.06373992966 -1.86152113742 -0.183100439746
33643769 0.00 1.06094216169 -1.88440869239 -0.13732532981
33643769 0.00 1.06094216169 -1.88440869239 -0.13732532981
33643769 0.00 1.06094216169 -1.88440869239 -0.13732532981
33643769 0.00 1.06094216169 -1.88440869239 -0.13732532981
33643769 0.00 1.06094216169 -1.88440869239 -0.13732532981
33643769 0.00 1.06094216169 -1.88440869239 -0.13732532981
33643769 0.00 1.06094216169 -1.88440869239 -0.13732532981
33643769 0.00 1.06094216169 -1.88440869239 -0.13732532981
33648769 0.00 1.06094216169 -1.88440869239 -0.13732532981
33648769 0.00 1.06094216169 -1.88440869239 -0.13732532981
33648769 0.00 1.06094216169 -1.88440869239 -0.13732532981
33648769 0.00 1.06094216169 -1.88440869239 -0.13732532981
33648769 0.00 1.06094216169 -1.88440869239 -0.13732532981
33648769 0.00 1.06094216169 -1.88440869239 -0.13732532981
33648769 0.00 1.06094216169 -1.88440869239 -0.13732532981
33648769 0.00 1.06094216169 -1.88440869239 -0.13732532981
33653769 0.00 1.06471686114 -1.78522928753 -0.198358809725
33653769 0.00 1.06471686114 -1.78522928753 -0.198358809725
33653769 0.00 1.06471686114 -1.78522928753 -0.198358809725
33653769 0.00 1.06471686114 -1.78522928753 -0.198358809725
33653769 0.00 1.06471686114 -1.78522928753 -0.198358809725
33653769 0.00 1.06471686114 -1.78522928753 -0.198358809725
33653769 0.00 1.06471686114 -1.78522928753 -0.198358809725
33653769 0.00 1.06471686114 -1.78522928753 -0.198358809725
33658770 0.00 1.06471686114 -1.78522928753 -0.198358809725
33658770 0.00 1.06471686114 -1.78522928753 -0.198358809725
33658770 0.00 1.06471686114 -1.78522928753 -0.198358809725
33658770 0.00 1.06471686114 -1.78522928753 -0.198358809725
33658770 0.00 1.06471686114 -1.78522928753 -0.198358809725
33658770 0.00 1.06471686114 -1.78522928753 -0.198358809725
33658770 0.00 1.06471686114 -1.78522928753 -0.198358809725
33658770 0.00 1.06471686114 -1.78522928753 -0.198358809725
33663769 0.00 1.062579883 -1.76234173256 -0.228875549683
33663769 0.00 1.062579883 -1.76234173256 -0.228875549683
33663769 0.00 1.062579883 -1.76234173256 -0.228875549683
33663769 0.00 1.062579883 -1.76234173256 -0.228875549683
33663769 0.00 1.062579883 -1.76234173256 -0.228875549683
33663769 0.00 1.062579883 -1.76234173256 -0.228875549683
33663769 0.00 1.062579883 -1.76234173256 -0.228875549683
33663769 0.00 1.062579883 -1.76234173256 -0.228875549683
33668770 0.00 1.062579883 -1.76234173256 -0.228875549683
33668770 0.00 1.062579883 -1.76234173256 -0.228875549683
33668770 0.00 1.062579883 -1.76234173256 -0.228875549683
33668770 0.00 1.062579883 -1.76234173256 -0.228875549683
33668770 0.00 1.062579883 -1.76234173256 -0.228875549683
33668770 0.00 1.062579883 -1.76234173256 -0.228875549683
33668770 0.00 1.062579883 -1.76234173256 -0.228875549683
33668770 0.00 1.062579883 -1.76234173256 -0.228875549683
33673770 0.00 1.062579883 -1.83100439746 -0.160212884778
33673770 0.00 1.062579883 -1.83100439746 -0.160212884778
33673770 0.00 1.062579883 -1.83100439746 -0.160212884778
33673770 0.00 1.062579883 -1.83100439746 -0.160212884778
33673770 0.00 1.062579883 -1.83100439746 -0.160212884778
33673770 0.00 1.062579883 -1.83100439746 -0.160212884778
33673770 0.00 1.062579883 -1.83100439746 -0.160212884778
33673770 0.00 1.062579883 -1.83100439746 -0.160212884778
33678770 0.00 1.06127301011 -1.83100439746 -0.160212884778
33678770 0.00 1.06127301011 -1.83100439746 -0.160212884778
33678770 0.00 1.06127301011 -1.83100439746 -0.160212884778
33678770 0.00 1.06127301011 -1.83100439746 -0.160212884778
33678770 0.00 1.06127301011 -1.83100439746 -0.160212884778
33678770 0.00 1.06127301011 -1.83100439746 -0.160212884778
33678770 0.00 1.06127301011 -1.83100439746 -0.160212884778
33678770 0.00 1.06127301011 -1.83100439746 -0.160212884778
33683770 0.00 1.06127301011 -1.91492543235 -0.190729624736
33683770 0.00 1.06127301011 -1.91492543235 -0.190729624736
33683770 0.00 1.06127301011 -1.91492543235 -0.190729624736
33683770 0.00 1.06127301011 -1.91492543235 -0.190729624736
33683770 0.00 1.06127301011 -1.91492543235 -0.190729624736
33683770 0.00 1.06127301011 -1.91492543235 -0.190729624736
33683770 0.00 1.06127301011 -1.91492543235 -0.190729624736
33683770 0.00 1.06127301011 -1.91492543235 -0.190729624736
33688769 0.00 1.06493406193 -1.91492543235 -0.190729624736
33688769 0.00 1.06493406193 -1.91492543235 -0.190729624736
33688769 0.00 1.06493406193 -1.91492543235 -0.190729624736
33688769 0.00 1.06493406193 -1.91492543235 -0.190729624736
33688769 0.00 1.06493406193 -1.91492543235 -0.190729624736
33688769 0.00 1.06493406193 -1.91492543235 -0.190729624736
33688769 0.00 1.06493406193 -1.91492543235 -0.190729624736
33688769 0.00 1.06493406193 -1.91492543235 -0.190729624736
33693770 0.00 1.06493406193 -1.86915032241 -0.167842069767
33693770 0.00 1.06493406193 -1.86915032241 -0.167842069767
33693770 0.00 1.06493406193 -1.86915032241 -0.167842069767
33693770 0.00 1.06493406193 -1.86915032241 -0.167842069767
33693770 0.00 1.06493406193 -1.86915032241 -0.167842069767
33693770 0.00 1.06493406193 -1.86915032241 -0.167842069767
33693770 0.00 1.06493406193 -1.86915032241 -0.167842069767
33693770 0.00 1.06493406193 -1.86915032241 -0.167842069767
33698770 0.00 1.06537328198 -1.86915032241 -0.167842069767
33698770 0.00 1.06537328198 -1.86915032241 -0.167842069767
33698770 0.00 1.06537328198 -1.86915032241 -0.167842069767
33698770 0.00 1.06537328198 -1.86915032241 -0.167842069767
33698770 0.00 1.06537328198 -1.86915032241 -0.167842069767
33698770 0.00 1.06537328198 -1.86915032241 -0.167842069767
33698770 0.00 1.06537328198 -1.86915032241 -0.167842069767
33698770 0.00 1.06537328198 -1.86915032241 -0.167842069767
33703770 0.00 1.06537328198 -1.85389195243 -0.190729624736
33703770 0.00 1.06537328198 -1.85389195243 -0.190729624736
33703770 0.00 1.06537328198 -1.85389195243 -0.190729624736
33703770 0.00 1.06537328198 -1.85389195243 -0.190729624736
33703770 0.00 1.06537328198 -1.85389195243 -0.190729624736
33703770 0.00 1.06537328198 -1.85389195243 -0.190729624736
33703770 0.00 1.06537328198 -1.85389195243 -0.190729624736
33703770 0.00 1.06537328198 -1.85389195243 -0.190729624736
33708770 0.00 1.06365117303 -1.85389195243 -0.190729624736
33708770 0.00 1.06365117303 -1.85389195243 -0.190729624736
33708770 0.00 1.06365117303 -1.85389195243 -0.190729624736
33708770 0.00 1.06365117303 -1.85389195243 -0.190729624736
33708770 0.00 1.06365117303 -1.85389195243 -0.190729624736
33708770 0.00 1.06365117303 -1.85389195243 -0.190729624736
33708770 0.00 1.06365117303 -1.85389195243 -0.190729624736
33708770 0.00 1.06365117303 -1.85389195243 -0.190729624736
33713770 0.00 1.06365117303 -1.83100439746 -0.175471254757
33713770 0.00 1.06365117303 -1.83100439746 -0.175471254757
33713770 0.00 1.06365117303 -1.83100439746 -0.175471254757
33713770 0.00 1.06365117303 -1.83100439746 -0.175471254757
33713770 0.00 1.06365117303 -1.83100439746 -0.175471254757
33713770 0.00 1.06365117303 -1.83100439746 -0.175471254757
33713770 0.00 1.06365117303 -1.83100439746 -0.175471254757
33713770 0.00 1.06365117303 -1.83100439746 -0.175471254757
33718770 0.00 1.06315160503 -1.83100439746 -0.175471254757
33718770 0.00 1.06315160503 -1.83100439746 -0.175471254757
33718770 0.00 1.06315160503 -1.83100439746 -0.175471254757
33718770 0.00 1.06315160503 -1.83100439746 -0.175471254757
33718770 0.00 1.06315160503 -1.83100439746 -0.175471254757
33718770 0.00 1.06315160503 -1.83100439746 -0.175471254757
33718770 0.00 1.06315160503 -1.83100439746 -0.175471254757
33718770 0.00 1.06315160503 -1.83100439746 -0.175471254757
33723770 0.00 1.06315160503 -1.82337521247 -0.106808589852
33723770 0.00 1.06315160503 -1.82337521247 -0.106808589852
33723770 0.00 1.06315160503 -1.82337521247 -0.106808589852
33723770 0.00 1.06315160503 -1.82337521247 -0.106808589852
33723770 0.00 1.06315160503 -1.82337521247 -0.106808589852
33723770 0.00 1.06315160503 -1.82337521247 -0.106808589852
33723770 0.00 1.06315160503 -1.82337521247 -0.106808589852
33723770 0.00 1.06315160503 -1.82337521247 -0.106808589852
33728770 0.00 1.06189973438 -1.82337521247 -0.106808589852
33728770 0.00 1.06189973438 -1.82337521247 -0.106808589852
33728770 0.00 1.06189973438 -1.82337521247 -0.106808589852
33728770 0.00 1.06189973438 -1.82337521247 -0.106808589852
33728770 0.00 1.06189973438 -1.82337521247 -0.106808589852
33728770 0.00 1.06189973438 -1.82337521247 -0.106808589852
33728770 0.00 1.06189973438 -1.82337521247 -0.106808589852
33728770 0.00 1.06189973438 -1.82337521247 -0.106808589852
33733770 0.00 1.06189973438 -1.80811684249 -0.183100439746
33733770 0.00 1.06189973438 -1.80811684249 -0.183100439746
33733770 0.00 1.06189973438 -1.80811684249 -0.183100439746
33733770 0.00 1.06189973438 -1.80811684249 -0.183100439746
33733770 0.00 1.06189973438 -1.80811684249 -0.183100439746
33733770 0.00 1.06189973438 -1.80811684249 -0.183100439746
33733770 0.00 1.06189973438 -1.80811684249 -0.183100439746
33733770 0.00 1.06189973438 -1.80811684249 -0.183100439746
33738770 0.00 1.06418416361 -1.80811684249 -0.183100439746
33738770 0.00 1.06418416361 -1.80811684249 -0.183100439746
33738770 0.00 1.06418416361 -1.80811684249 -0.183100439746
33738770 0.00 1.06418416361 -1.80811684249 -0.183100439746
33738770 0.00 1.06418416361 -1.80811684249 -0.183100439746
33738770 0.00 1.06418416361 -1.80811684249 -0.183100439746
33738770 0.00 1.06418416361 -1.80811684249 -0.183100439746
33738770 0.00 1.06418416361 -1.80811684249 -0.183100439746
33743770 0.00 1.06418416361 -1.8004876575 -0.198358809725
33743770 0.00 1.06418416361 -1.8004876575 -0.198358809725
33743770 0.00 1.06418416361 -1.8004876575 -0.198358809725
33743770 0.00 1.06418416361 -1.8004876575 -0.198358809725
33743770 0.00 1.06418416361 -1.8004876575 -0.198358809725
33743770 0.00 1.06418416361 -1.8004876575 -0.198358809725
33743770 0.00 1.06418416361 -1.8004876575 -0.198358809725
33743770 0.00 1.06418416361 -1.8004876575 -0.198358809725
33748770 0.00 1.06266790704 -1.8004876575 -0.198358809725
33748770 0.00 1.06266790704 -1.8004876575 -0.198358809725
33748770 0.00 1.06266790704 -1.8004876575 -0.198358809725
33748770 0.00 1.06266790704 -1.8004876575 -0.198358809725
33748770 0.00 1.06266790704 -1.8004876575 -0.198358809725
33748770 0.00 1.06266790704 -1.8004876575 -0.198358809725
33748770 0.00 1.06266790704 -1.8004876575 -0.198358809725
33748770 0.00 1.06266790704 -1.8004876575 -0.198358809725
33753770 0.00 1.06266790704 -1.83100439746 -0.198358809725
33753770 0.00 1.06266790704 -1.83100439746 -0.198358809725
33753770 0.00 1.06266790704 -1.83100439746 -0.198358809725
33753770 0.00 1.06266790704 -1.83100439746 -0.198358809725
33753770 0.00 1.06266790704 -1.83100439746 -0.198358809725
33753770 0.00 1.06266790704 -1.83100439746 -0.198358809725
33753770 0.00 1.06266790704 -1.83100439746 -0.198358809725
33753770 0.00 1.06266790704 -1.83100439746 -0.198358809725
33758770 0.00 1.06442516535 -1.83100439746 -0.198358809725
33758770 0.00 1.06442516535 -1.83100439746 -0.198358809725
33758770 0.00 1.06442516535 -1.83100439746 -0.198358809725
33758770 0.00 1.06442516535 -1.83100439746 -0.198358809725
33758770 0.00 1.06442516535 -1.83100439746 -0.198358809725
33758770 0.00 1.06442516535 -1.83100439746 -0.198358809725
33758770 0.00 1.06442516535 -1.83100439746 -0.198358809725
33758770 0.00 1.06442516535 -1.83100439746 -0.198358809725
33763770 0.00 1.06442516535 -1.86152113742 -0.236504734672
33763770 0.00 1.06442516535 -1.86152113742 -0.236504734672
33763770 0.00 1.06442516535 -1.86152113742 -0.236504734672
33763770 0.00 1.06442516535 -1.86152113742 -0.236504734672
33763770 0.00 1.06442516535 -1.86152113742 -0.236504734672
33763770 0.00 1.06442516535 -1.86152113742 -0.236504734672
33763770 0.00 1.06442516535 -1.86152113742 -0.236504734672
33763770 0.00 1.06442516535 -1.86152113742 -0.236504734672
33768770 0.00 1.06568094537 -1.86152113742 -0.236504734672
33768770 0.00 1.06568094537 -1.86152113742 -0.236504734672
33768770 0.00 1.06568094537 -1.86152113742 -0.236504734672
33768770 0.00 1.06568094537 -1.86152113742 -0.236504734672
33768770 0.00 1.06568094537 -1.86152113742 -0.236504734672
33768770 0.00 1.06568094537 -1.86152113742 -0.236504734672
33768770 0.00 1.06568094537 -1.86152113742 -0.236504734672
33768770 0.00 1.06568094537 -1.86152113742 -0.236504734672
33773770 0.00 1.06568094537 -1.8004876575 -0.198358809725
33773770 0.00 1.06568094537 -1.8004876575 -0.198358809725
33773770 0.00 1.06568094537 -1.8004876575 -0.198358809725
33773770 0.00 1.06568094537 -1.8004876575 -0.198358809725
33773770 0.00 1.06568094537 -1.8004876575 -0.198358809725
33773770 0.00 1.06568094537 -1.8004876575 -0.198358809725
33773770 0.00 1.06568094537 -1.8004876575 -0.198358809725
33773770 0.00 1.06568094537 -1.8004876575 -0.198358809725
33778770 0.00 1.06428402074 -1.8004876575 -0.198358809725
33778770 0.00 1.06428402074 -1.8004876575 -0.198358809725
33778770 0.00 1.06428402074 -1.8004876575 -0.198358809725
33778770 0.00 1.06428402074 -1.8004876575 -0.198358809725
33778770 0.00 1.06428402074 -1.8004876575 -0.198358809725
33778770 0.00 1.06428402074 -1.8004876575 -0.198358809725
33778770 0.00 1.06428402074 -1.8004876575 -0.198358809725
33778770 0.00 1.06428402074 -1.8004876575 -0.198358809725
33783770 0.00 1.06428402074 -1.86152113742 -0.198358809725
33783770 0.00 1.06428402074 -1.86152113742 -0.198358809725
33783770 0.00 1.06428402074 -1.86152113742 -0.198358809725
33783770 0.00 1.06428402074 -1.86152113742 -0.198358809725
33783770 0.00 1.06428402074 -1.86152113742 -0.198358809725
33783770 0.00 1.06428402074 -1.86152113742 -0.198358809725
33783770 0.00 1.06428402074 -1.86152113742 -0.198358809725
33783770 0.00 1.06428402074 -1.86152113742 -0.198358809725
33788770 0.00 1.06108892579 -1.86152113742 -0.198358809725
33788770 0.00 1.06108892579 -1.86152113742 -0.198358809725
33788770 0.00 1.06108892579 -1.86152113742 -0.198358809725
33788770 0.00 1.06108892579 -1.86152113742 -0.198358809725
33788770 0.00 1.06108892579 -1.86152113742 -0.198358809725
33788770 0.00 1.06108892579 -1.86152113742 -0.198358809725
33788770 0.00 1.06108892579 -1.86152113742 -0.198358809725
33788770 0.00 1.06108892579 -1.86152113742 -0.198358809725
33793770 0.00 1.06108892579 -1.82337521247 -0.221246364693
33793770 0.00 1.06108892579 -1.82337521247 -0.221246364693
33793770 0.00 1.06108892579 -1.82337521247 -0.221246364693
33793770 0.00 1.06108892579 -1.82337521247 -0.221246364693
33793770 0.00 1.06108892579 -1.82337521247 -0.221246364693
33793770 0.00 1.06108892579 -1.82337521247 -0.221246364693
33793770 0.00 1.06108892579 -1.82337521247 -0.221246364693
33793770 0.00 1.06108892579 -1.82337521247 -0.221246364693
33798770 0.00 1.0625574731 -1.82337521247 -0.221246364693
33798770 0.00 1.0625574731 -1.82337521247 -0.221246364693
33798770 0.00 1.0625574731 -1.82337521247 -0.221246364693
33798770 0.00 1.0625574731 -1.82337521247 -0.221246364693
33798770 0.00 1.0625574731 -1.82337521247 -0.221246364693
33798770 0.00 1.0625574731 -1.82337521247 -0.221246364693
33798770 0.00 1.0625574731 -1.82337521247 -0.221246364693
33798770 0.00 1.0625574731 -1.82337521247 -0.221246364693
33803770 0.00 1.0625574731 -1.86915032241 -0.183100439746
33803770 0.00 1.0625574731 -1.86915032241 -0.183100439746
33803770 0.00 1.0625574731 -1.86915032241 -0.183100439746
33803770 0.00 1.0625574731 -1.86915032241 -0.183100439746
33803770 0.00 1.0625574731 -1.86915032241 -0.183100439746
33803770 0.00 1.0625574731 -1.86915032241 -0.183100439746
33803770 0.00 1.0625574731 -1.86915032241 -0.183100439746
33803770 0.00 1.0625574731 -1.86915032241 -0.183100439746
33808770 0.00 1.06452860958 -1.86915032241 -0.183100439746
33808770 0.00 1.06452860958 -1.86915032241 -0.183100439746
33808770 0.00 1.06452860958 -1.86915032241 -0.183100439746
33808770 0.00 1.06452860958 -1.86915032241 -0.183100439746
33808770 0.00 1.06452860958 -1.86915032241 -0.183100439746
33808770 0.00 1.06452860958 -1.86915032241 -0.183100439746
33808770 0.00 1.06452860958 -1.86915032241 -0.183100439746
33808770 0.00 1.06452860958 -1.86915032241 -0.183100439746
33813770 0.00 1.06452860958 -1.86915032241 -0.183100439746
33813770 0.00 1.06452860958 -1.86915032241 -0.183100439746
33813770 0.00 1.06452860958 -1.86915032241 -0.183100439746
33813770 0.00 1.06452860958 -1.86915032241 -0.183100439746
33813770 0.00 1.06452860958 -1.86915032241 -0.183100439746
33813770 0.00 1.06452860958 -1.86915032241 -0.183100439746
33813770 0.00 1.06452860958 -1.86915032241 -0.183100439746
33813770 0.00 1.06452860958 -1.86915032241 -0.183100439746
33818771 0.00 1.06338859489 -1.83100439746 -0.236504734672
33818771 0.00 1.06338859489 -1.83100439746 -0.236504734672
33818771 0.00 1.06338859489 -1.83100439746 -0.236504734672
33818771 0.00 1.06338859489 -1.83100439746 -0.236504734672
33818771 0.00 1.06338859489 -1.83100439746 -0.236504734672
33818771 0.00 1.06338859489 -1.83100439746 -0.236504734672
33818771 0.00 1.06338859489 -1.83100439746 -0.236504734672
33818771 0.00 1.06338859489 -1.83100439746 -0.236504734672
33823770 0.00 1.06338859489 -1.83100439746 -0.236504734672
33823770 0.00 1.06338859489 -1.83100439746 -0.236504734672
33823770 0.00 1.06338859489 -1.83100439746 -0.236504734672
33823770 0.00 1.06338859489 -1.83100439746 -0.236504734672
33823770 0.00 1.06338859489 -1.83100439746 -0.236504734672
33823770 0.00 1.06338859489 -1.83100439746 -0.236504734672
33823770 0.00 1.06338859489 -1.83100439746 -0.236504734672
33823770 0.00 1.06338859489 -1.83100439746 -0.236504734672
33828771 0.00 1.06381543158 -1.76234173256 -0.25939228964
33828771 0.00 1.06381543158 -1.76234173256 -0.25939228964
33828771 0.00 1.06381543158 -1.76234173256 -0.25939228964
33828771 0.00 1.06381543158 -1.76234173256 -0.25939228964
33828771 0.00 1.06381543158 -1.76234173256 -0.25939228964
33828771 0.00 1.06381543158 -1.76234173256 -0.25939228964
33828771 0.00 1.06381543158 -1.76234173256 -0.25939228964
33828771 0.00 1.06381543158 -1.76234173256 -0.25939228964
33833771 0.00 1.06381543158 -1.76234173256 -0.25939228964
33833771 0.00 1.06381543158 -1.76234173256 -0.25939228964
33833771 0.00 1.06381543158 -1.76234173256 -0.25939228964
33833771 0.00 1.06381543158 -1.76234173256 -0.25939228964
33833771 0.00 1.06381543158 -1.76234173256 -0.25939228964
33833771 0.00 1.06381543158 -1.76234173256 -0.25939228964
33833771 0.00 1.06381543158 -1.76234173256 -0.25939228964
33833771 0.00 1.06381543158 -1.76234173256 -0.25939228964
33838771 0.00 1.06544090776 -1.83863358245 -0.175471254757
33838771 0.00 1.06544090776 -1.83863358245 -0.175471254757
33838771 0.00 1.06544090776 -1.83863358245 -0.175471254757
33838771 0.00 1.06544090776 -1.83863358245 -0.175471254757
33838771 0.00 1.06544090776 -1.83863358245 -0.175471254757
33838771 0.00 1.06544090776 -1.83863358245 -0.175471254757
33838771 0.00 1.06544090776 -1.83863358245 -0.175471254757
33838771 0.00 1.06544090776 -1.83863358245 -0.175471254757
33843771 0.00 1.06544090776 -1.83863358245 -0.175471254757
33843771 0.00 1.06544090776 -1.83863358245 -0.175471254757
33843771 0.00 1.06544090776 -1.83863358245 -0.175471254757
33843771 0.00 1.06544090776 -1.83863358245 -0.175471254757
33843771 0.00 1.06544090776 -1.83863358245 -0.175471254757
33843771 0.00 1.06544090776 -1.83863358245 -0.175471254757
33843771 0.00 1.06544090776 -1.83863358245 -0.175471254757
33843771 0.00 1.06544090776 -1.83863358245 -0.175471254757
33848771 0.00 1.06205551934 -1.86915032241 -0.13732532981
33848771 0.00 1.06205551934 -1.86915032241 -0.13732532981
33848771 0.00 1.06205551934 -1.86915032241 -0.13732532981
33848771 0.00 1.06205551934 -1.86915032241 -0.13732532981
33848771 0.00 1.06205551934 -1.86915032241 -0.13732532981
33848771 0.00 1.06205551934 -1.86915032241 -0.13732532981
33848771 0.00 1.06205551934 -1.86915032241 -0.13732532981
33848771 0.00 1.06205551934 -1.86915032241 -0.13732532981
33853770 0.00 1.06205551934 -1.86915032241 -0.13732532981
33853770 0.00 1.06205551934 -1.86915032241 -0.13732532981
33853770 0.00 1.06205551934 -1.86915032241 -0.13732532981
33853770 0.00 1.06205551934 -1.86915032241 -0.13732532981
33853770 0.00 1.06205551934 -1.86915032241 -0.13732532981
33853770 0.00 1.06205551934 -1.86915032241 -0.13732532981
33853770 0.00 1.06205551934 -1.86915032241 -0.13732532981
33853770 0.00 1.06205551934 -1.86915032241 -0.13732532981
33858771 0.00 1.06169082705 -1.81574602748 -0.144954514799
33858771 0.00 1.06169082705 -1.81574602748 -0.144954514799
33858771 0.00 1.06169082705 -1.81574602748 -0.144954514799
33858771 0.00 1.06169082705 -1.81574602748 -0.144954514799
33858771 0.00 1.06169082705 -1.81574602748 -0.144954514799
33858771 0.00 1.06169082705 -1.81574602748 -0.144954514799
33858771 0.00 1.06169082705 -1.81574602748 -0.144954514799
33858771 0.00 1.06169082705 -1.81574602748 -0.144954514799
33863770 0.00 1.06169082705 -1.81574602748 -0.144954514799
33863770 0.00 1.06169082705 -1.81574602748 -0.144954514799
33863770 0.00 1.06169082705 -1.81574602748 -0.144954514799
33863770 0.00 1.06169082705 -1.81574602748 -0.144954514799
33863770 0.00 1.06169082705 -1.81574602748 -0.144954514799
33863770 0.00 1.06169082705 -1.81574602748 -0.144954514799
33863770 0.00 1.06169082705 -1.81574602748 -0.144954514799
33863770 0.00 1.06169082705 -1.81574602748 -0.144954514799
33868771 0.00 1.06483026875 -1.82337521247 -0.152583699789
33868771 0.00 1.06483026875 -1.82337521247 -0.152583699789
33868771 0.00 1.06483026875 -1.82337521247 -0.152583699789
33868771 0.00 1.06483026875 -1.82337521247 -0.152583699789
33868771 0.00 1.06483026875 -1.82337521247 -0.152583699789
33868771 0.00 1.06483026875 -1.82337521247 -0.152583699789
33868771 0.00 1.06483026875 -1.82337521247 -0.152583699789
33868771 0.00 1.06483026875 -1.82337521247 -0.152583699789
33873771 0.00 1.06483026875 -1.82337521247 -0.152583699789
33873771 0.00 1.06483026875 -1.82337521247 -0.152583699789
33873771 0.00 1.06483026875 -1.82337521247 -0.152583699789
33873771 0.00 1.06483026875 -1.82337521247 -0.152583699789
33873771 0.00 1.06483026875 -1.82337521247 -0.152583699789
33873771 0.00 1.06483026875 -1.82337521247 -0.152583699789
33873771 0.00 1.06483026875 -1.82337521247 -0.152583699789
33873771 0.00 1.06483026875 -1.82337521247 -0.152583699789
33878771 0.00 1.06413547956 -1.84626276744 -0.175471254757
33878771 0.00 1.06413547956 -1.84626276744 -0.175471254757
33878771 0.00 1.06413547956 -1.84626276744 -0.175471254757
33878771 0.00 1.06413547956 -1.84626276744 -0.175471254757
33878771 0.00 1.06413547956 -1.84626276744 -0.175471254757
33878771 0.00 1.06413547956 -1.84626276744 -0.175471254757
33878771 0.00 1.06413547956 -1.84626276744 -0.175471254757
33878771 0.00 1.06413547956 -1.84626276744 -0.175471254757
33883771 0.00 1.06413547956 -1.84626276744 -0.175471254757
33883771 0.00 1.06413547956 -1.84626276744 -0.175471254757
33883771 0.00 1.06413547956 -1.84626276744 -0.175471254757
33883771 0.00 1.06413547956 -1.84626276744 -0.175471254757
33883771 0.00 1.06413547956 -1.84626276744 -0.175471254757
33883771 0.00 1.06413547956 -1.84626276744 -0.175471254757
33883771 0.00 1.06413547956 -1.84626276744 -0.175471254757
33883771 0.00 1.06413547956 -1.84626276744 -0.175471254757
33888771 0.00 1.06347074411 -1.82337521247 -0.175471254757
33888771 0.00 1.06347074411 -1.82337521247 -0.175471254757
33888771 0.00 1.06347074411 -1.82337521247 -0.175471254757
33888771 0.00 1.06347074411 -1.82337521247 -0.175471254757
33888771 0.00 1.06347074411 -1.82337521247 -0.175471254757
33888771 0.00 1.06347074411 -1.82337521247 -0.175471254757
33888771 0.00 1.06347074411 -1.82337521247 -0.175471254757
33888771 0.00 1.06347074411 -1.82337521247 -0.175471254757
33893771 0.00 1.06347074411 -1.82337521247 -0.175471254757
33893771 0.00 1.06347074411 -1.82337521247 -0.175471254757
33893771 0.00 1.06347074411 -1.82337521247 -0.175471254757
33893771 0.00 1.06347074411 -1.82337521247 -0.175471254757
33893771 0.00 1.06347074411 -1.82337521247 -0.175471254757
33893771 0.00 1.06347074411 -1.82337521247 -0.175471254757
33893771 0.00 1.06347074411 -1.82337521247 -0.175471254757
33893771 0.00 1.06347074411 -1.82337521247 -0.175471254757
33898771 0.00 1.06448017751 -1.76997091755 -0.160212884778
33898771 0.00 1.06448017751 -1.76997091755 -0.160212884778
33898771 0.00 1.06448017751 -1.76997091755 -0.160212884778
33898771 0.00 1.06448017751 -1.76997091755 -0.160212884778
33898771 0.00 1.06448017751 -1.76997091755 -0.160212884778
33898771 0.00 1.06448017751 -1.76997091755 -0.160212884778
33898771 0.00 1.06448017751 -1.76997091755 -0.160212884778
33898771 0.00 1.06448017751 -1.76997091755 -0.160212884778
33903771 0.00 1.06448017751 -1.76997091755 -0.160212884778
33903771 0.00 1.06448017751 -1.76997091755 -0.160212884778
33903771 0.00 1.06448017751 -1.76997091755 -0.160212884778
33903771 0.00 1.06448017751 -1.76997091755 -0.160212884778
33903771 0.00 1.06448017751 -1.76997091755 -0.160212884778
33903771 0.00 1.06448017751 -1.76997091755 -0.160212884778
33903771 0.00 1.06448017751 -1.76997091755 -0.160212884778
33903771 0.00 1.06448017751 -1.76997091755 -0.160212884778
33908771 0.00 1.0646827835 -1.82337521247 -0.152583699789
33908771 0.00 1.0646827835 -1.82337521247 -0.152583699789
33908771 0.00 1.0646827835 -1.82337521247 -0.152583699789
33908771 0.00 1.0646827835 -1.82337521247 -0.152583699789
33908771 0.00 1.0646827835 -1.82337521247 -0.152583699789
33908771 0.00 1.0646827835 -1.82337521247 -0.152583699789
33908771 0.00 1.0646827835 -1.82337521247 -0.152583699789
33908771 0.00 1.0646827835 -1.82337521247 -0.152583699789
33913771 0.00 1.0646827835 -1.82337521247 -0.152583699789
33913771 0.00 1.0646827835 -1.82337521247 -0.152583699789
33913771 0.00 1.0646827835 -1.82337521247 -0.152583699789
33913771 0.00 1.0646827835 -1.82337521247 -0.152583699789
33913771 0.00 1.0646827835 -1.82337521247 -0.152583699789
33913771 0.00 1.0646827835 -1.82337521247 -0.152583699789
33913771 0.00 1.0646827835 -1.82337521247 -0.152583699789
33913771 0.00 1.0646827835 -1.82337521247 -0.152583699789
33918771 0.00 1.06318547422 -1.79285847252 -0.13732532981
33918771 0.00 1.06318547422 -1.79285847252 -0.13732532981
33918771 0.00 1.06318547422 -1.79285847252 -0.13732532981
33918771 0.00 1.06318547422 -1.79285847252 -0.13732532981
33918771 0.00 1.06318547422 -1.79285847252 -0.13732532981
33918771 0.00 1.06318547422 -1.79285847252 -0.13732532981
33918771 0.00 1.06318547422 -1.79285847252 -0.13732532981
33918771 0.00 1.06318547422 -1.79285847252 -0.13732532981
33923771 0.00 1.06318547422 -1.79285847252 -0.13732532981
33923771 0.00 1.06318547422 -1.79285847252 -0.13732532981
33923771 0.00 1.06318547422 -1.79285847252 -0.13732532981
33923771 0.00 1.06318547422 -1.79285847252 -0.13732532981
33923771 0.00 1.06318547422 -1.79285847252 -0.13732532981
33923771 0.00 1.06318547422 -1.79285847252 -0.13732532981
33923771 0.00 1.06318547422 -1.79285847252 -0.13732532981
33923771 0.00 1.06318547422 -1.79285847252 -0.13732532981
33928771 0.00 1.05963683557 -1.8004876575 -0.190729624736
33928771 0.00 1.05963683557 -1.8004876575 -0.190729624736
33928771 0.00 1.05963683557 -1.8004876575 -0.190729624736
33928771 0.00 1.05963683557 -1.8004876575 -0.190729624736
33928771 0.00 1.05963683557 -1.8004876575 -0.190729624736
33928771 0.00 1.05963683557 -1.8004876575 -0.190729624736
33928771 0.00 1.05963683557 -1.8004876575 -0.190729624736
33928771 0.00 1.05963683557 -1.8004876575 -0.190729624736
33933771 0.00 1.05963683557 -1.8004876575 -0.190729624736
33933771 0.00 1.05963683557 -1.8004876575 -0.190729624736
33933771 0.00 1.05963683557 -1.8004876575 -0.190729624736
33933771 0.00 1.05963683557 -1.8004876575 -0.190729624736
33933771 0.00 1.05963683557 -1.8004876575 -0.190729624736
33933771 0.00 1.05963683557 -1.8004876575 -0.190729624736
33933771 0.00 1.05963683557 -1.8004876575 -0.190729624736
33933771 0.00 1.05963683557 -1.8004876575 -0.190729624736
33938771 0.00 1.05865298348 -1.90729624736 -0.198358809725
33938771 0.00 1.05865298348 -1.90729624736 -0.198358809725
33938771 0.00 1.05865298348 -1.90729624736 -0.198358809725
33938771 0.00 1.05865298348 -1.90729624736 -0.198358809725
33938771 0.00 1.05865298348 -1.90729624736 -0.198358809725
33938771 0.00 1.05865298348 -1.90729624736 -0.198358809725
33938771 0.00 1.05865298348 -1.90729624736 -0.198358809725
33938771 0.00 1.05865298348 -1.90729624736 -0.198358809725
33943771 0.00 1.05865298348 -1.90729624736 -0.198358809725
33943771 0.00 1.05865298348 -1.90729624736 -0.198358809725
33943771 0.00 1.05865298348 -1.90729624736 -0.198358809725
33943771 0.00 1.05865298348 -1.90729624736 -0.198358809725
33943771 0.00 1.05865298348 -1.90729624736 -0.198358809725
33943771 0.00 1.05865298348 -1.90729624736 -0.198358809725
33943771 0.00 1.05865298348 -1.90729624736 -0.198358809725
33943771 0.00 1.05865298348 -1.90729624736 -0.198358809725
33948771 0.00 1.0663017599 -1.84626276744 -0.183100439746
33948771 0.00 1.0663017599 -1.84626276744 -0.183100439746
33948771 0.00 1.0663017599 -1.84626276744 -0.183100439746
33948771 0.00 1.0663017599 -1.84626276744 -0.183100439746
33948771 0.00 1.0663017599 -1.84626276744 -0.183100439746
33948771 0.00 1.0663017599 -1.84626276744 -0.183100439746
33948771 0.00 1.0663017599 -1.84626276744 -0.183100439746
33948771 0.00 1.0663017599 -1.84626276744 -0.183100439746
33953771 0.00 1.0663017599 -1.84626276744 -0.183100439746
33953771 0.00 1.0663017599 -1.84626276744 -0.183100439746
33953771 0.00 1.0663017599 -1.84626276744 -0.183100439746
33953771 0.00 1.0663017599 -1.84626276744 -0.183100439746
33953771 0.00 1.0663017599 -1.84626276744 -0.183100439746
33953771 0.00 1.0663017599 -1.84626276744 -0.183100439746
33953771 0.00 1.0663017599 -1.84626276744 -0.183100439746
33953771 0.00 1.0663017599 -1.84626276744 -0.183100439746
33958771 0.00 1.06842327624 -1.75471254757 -0.152583699789
33958771 0.00 1.06842327624 -1.75471254757 -0.152583699789
33958771 0.00 1.06842327624 -1.75471254757 -0.152583699789
33958771 0.00 1.06842327624 -1.75471254757 -0.152583699789
33958771 0.00 1.06842327624 -1.75471254757 -0.152583699789
33958771 0.00 1.06842327624 -1.75471254757 -0.152583699789
33958771 0.00 1.06842327624 -1.75471254757 -0.152583699789
33958771 0.00 1.06842327624 -1.75471254757 -0.152583699789
33963771 0.00 1.06842327624 -1.75471254757 -0.152583699789
33963771 0.00 1.06842327624 -1.75471254757 -0.152583699789
33963771 0.00 1.06842327624 -1.75471254757 -0.152583699789
33963771 0.00 1.06842327624 -1.75471254757 -0.152583699789
33963771 0.00 1.06842327624 -1.75471254757 -0.152583699789
33963771 0.00 1.06842327624 -1.75471254757 -0.152583699789
33963771 0.00 1.06842327624 -1.75471254757 -0.152583699789
33963771 0.00 1.06842327624 -1.75471254757 -0.152583699789
33968771 0.00 1.05829295322 -1.8004876575 -0.160212884778
33968771 0.00 1.05829295322 -1.8004876575 -0.160212884778
33968771 0.00 1.05829295322 -1.8004876575 -0.160212884778
33968771 0.00 1.05829295322 -1.8004876575 -0.160212884778
33968771 0.00 1.05829295322 -1.8004876575 -0.160212884778
33968771 0.00 1.05829295322 -1.8004876575 -0.160212884778
33968771 0.00 1.05829295322 -1.8004876575 -0.160212884778
33968771 0.00 1.05829295322 -1.8004876575 -0.160212884778
33973771 0.00 1.05829295322 -1.8004876575 -0.160212884778
33973771 0.00 1.05829295322 -1.8004876575 -0.160212884778
33973771 0.00 1.05829295322 -1.8004876575 -0.160212884778
33973771 0.00 1.05829295322 -1.8004876575 -0.160212884778
33973771 0.00 1.05829295322 -1.8004876575 -0.160212884778
33973771 0.00 1.05829295322 -1.8004876575 -0.160212884778
33973771 0.00 1.05829295322 -1.8004876575 -0.160212884778
33973771 0.00 1.05829295322 -1.8004876575 -0.160212884778
33978771 0.00 1.06517902261 -1.77760010254 -0.144954514799
33978771 0.00 1.06517902261 -1.77760010254 -0.144954514799
33978771 0.00 1.06517902261 -1.77760010254 -0.144954514799
33978771 0.00 1.06517902261 -1.77760010254 -0.144954514799
33978771 0.00 1.06517902261 -1.77760010254 -0.144954514799
33978771 0.00 1.06517902261 -1.77760010254 -0.144954514799
33978771 0.00 1.06517902261 -1.77760010254 -0.144954514799
33978771 0.00 1.06517902261 -1.77760010254 -0.144954514799
33983771 0.00 1.06517902261 -1.77760010254 -0.144954514799
33983771 0.00 1.06517902261 -1.77760010254 -0.144954514799
33983771 0.00 1.06517902261 -1.77760010254 -0.144954514799
33983771 0.00 1.06517902261 -1.77760010254 -0.144954514799
33983771 0.00 1.06517902261 -1.77760010254 -0.144954514799
33983771 0.00 1.06517902261 -1.77760010254 -0.144954514799
33983771 0.00 1.06517902261 -1.77760010254 -0.144954514799
33983771 0.00 1.06517902261 -1.77760010254 -0.144954514799
33988772 0.00 1.06029377863 -1.85389195243 -0.122066959831
33988772 0.00 1.06029377863 -1.85389195243 -0.122066959831
33988772 0.00 1.06029377863 -1.85389195243 -0.122066959831
33988772 0.00 1.06029377863 -1.85389195243 -0.122066959831
33988772 0.00 1.06029377863 -1.85389195243 -0.122066959831
33988772 0.00 1.06029377863 -1.85389195243 -0.122066959831
33988772 0.00 1.06029377863 -1.85389195243 -0.122066959831
33988772 0.00 1.06029377863 -1.85389195243 -0.122066959831
33993772 0.00 1.06029377863 -1.85389195243 -0.122066959831
33993772 0.00 1.06029377863 -1.85389195243 -0.122066959831
33993772 0.00 1.06029377863 -1.85389195243 -0.122066959831
33993772 0.00 1.06029377863 -1.85389195243 -0.122066959831
33993772 0.00 1.06029377863 -1.85389195243 -0.122066959831
33993772 0.00 1.06029377863 -1.85389195243 -0.122066959831
33993772 0.00 1.06029377863 -1.85389195243 -0.122066959831
33993772 0.00 1.06029377863 -1.85389195243 -0.122066959831
33998772 0.00 1.06516378985 -1.83863358245 -0.175471254757
33998772 0.00 1.06516378985 -1.83863358245 -0.175471254757
33998772 0.00 1.06516378985 -1.83863358245 -0.175471254757
33998772 0.00 1.06516378985 -1.83863358245 -0.175471254757
33998772 0.00 1.06516378985 -1.83863358245 -0.175471254757
33998772 0.00 1.06516378985 -1.83863358245 -0.175471254757
33998772 0.00 1.06516378985 -1.83863358245 -0.175471254757
33998772 0.00 1.06516378985 -1.83863358245 -0.175471254757
34003772 0.00 1.06516378985 -1.83863358245 -0.175471254757
34003772 0.00 1.06516378985 -1.83863358245 -0.175471254757
34003772 0.00 1.06516378985 -1.83863358245 -0.175471254757
34003772 0.00 1.06516378985 -1.83863358245 -0.175471254757
34003772 0.00 1.06516378985 -1.83863358245 -0.175471254757
34003772 0.00 1.06516378985 -1.83863358245 -0.175471254757
34003772 0.00 1.06516378985 -1.83863358245 -0.175471254757
34003772 0.00 1.06516378985 -1.83863358245 -0.175471254757
34008772 0.00 1.06359796383 -1.88440869239 -0.144954514799
34008772 0.00 1.06359796383 -1.88440869239 -0.144954514799
34008772 0.00 1.06359796383 -1.88440869239 -0.144954514799
34008772 0.00 1.06359796383 -1.88440869239 -0.144954514799
34008772 0.00 1.06359796383 -1.88440869239 -0.144954514799
34008772 0.00 1.06359796383 -1.88440869239 -0.144954514799
34008772 0.00 1.06359796383 -1.88440869239 -0.144954514799
34008772 0.00 1.06359796383 -1.88440869239 -0.144954514799
34013772 0.00 1.06359796383 -1.88440869239 -0.144954514799
34013772 0.00 1.06359796383 -1.88440869239 -0.144954514799
34013772 0.00 1.06359796383 -1.88440869239 -0.144954514799
34013772 0.00 1.06359796383 -1.88440869239 -0.144954514799
34013772 0.00 1.06359796383 -1.88440869239 -0.144954514799
34013772 0.00 1.06359796383 -1.88440869239 -0.144954514799
34013772 0.00 1.06359796383 -1.88440869239 -0.144954514799
34013772 0.00 1.06359796383 -1.88440869239 -0.144954514799
34018772 0.00 1.06054970265 -1.90729624736 -0.106808589852
34018772 0.00 1.06054970265 -1.90729624736 -0.106808589852
34018772 0.00 1.06054970265 -1.90729624736 -0.106808589852
34018772 0.00 1.06054970265 -1.90729624736 -0.106808589852
34018772 0.00 1.06054970265 -1.90729624736 -0.106808589852
34018772 0.00 1.06054970265 -1.90729624736 -0.106808589852
34018772 0.00 1.06054970265 -1.90729624736 -0.106808589852
34018772 0.00 1.06054970265 -1.90729624736 -0.106808589852
34023772 0.00 1.06054970265 -1.90729624736 -0.106808589852
34023772 0.00 1.06054970265 -1.90729624736 -0.106808589852
34023772 0.00 1.06054970265 -1.90729624736 -0.106808589852
34023772 0.00 1.06054970265 -1.90729624736 -0.106808589852
34023772 0.00 1.06054970265 -1.90729624736 -0.106808589852
34023772 0.00 1.06054970265 -1.90729624736 -0.106808589852
34023772 0.00 1.06054970265 -1.90729624736 -0.106808589852
34023772 0.00 1.06054970265 -1.90729624736 -0.106808589852
34028772 0.00 1.06538336117 -1.86152113742 -0.152583699789
34028772 0.00 1.06538336117 -1.86152113742 -0.152583699789
34028772 0.00 1.06538336117 -1.86152113742 -0.152583699789
34028772 0.00 1.06538336117 -1.86152113742 -0.152583699789
34028772 0.00 1.06538336117 -1.86152113742 -0.152583699789
34028772 0.00 1.06538336117 -1.86152113742 -0.152583699789
34028772 0.00 1.06538336117 -1.86152113742 -0.152583699789
34028772 0.00 1.06538336117 -1.86152113742 -0.152583699789
34033772 0.00 1.06538336117 -1.86152113742 -0.152583699789
34033772 0.00 1.06538336117 -1.86152113742 -0.152583699789
34033772 0.00 1.06538336117 -1.86152113742 -0.152583699789
34033772 0.00 1.06538336117 -1.86152113742 -0.152583699789
34033772 0.00 1.06538336117 -1.86152113742 -0.152583699789
34033772 0.00 1.06538336117 -1.86152113742 -0.152583699789
34033772 0.00 1.06538336117 -1.86152113742 -0.152583699789
34033772 0.00 1.06538336117 -1.86152113742 -0.152583699789
34038772 0.00 1.06389520355 -1.91492543235 -0.213617179704
34038772 0.00 1.06389520355 -1.91492543235 -0.213617179704
34038772 0.00 1.06389520355 -1.91492543235 -0.213617179704
34038772 0.00 1.06389520355 -1.91492543235 -0.213617179704
34038772 0.00 1.06389520355 -1.91492543235 -0.213617179704
34038772 0.00 1.06389520355 -1.91492543235 -0.213617179704
34038772 0.00 1.06389520355 -1.91492543235 -0.213617179704
34038772 0.00 1.06389520355 -1.91492543235 -0.213617179704
34043772 0.00 1.06389520355 -1.91492543235 -0.213617179704
34043772 0.00 1.06389520355 -1.91492543235 -0.213617179704
34043772 0.00 1.06389520355 -1.91492543235 -0.213617179704
34043772 0.00 1.06389520355 -1.91492543235 -0.213617179704
34043772 0.00 1.06389520355 -1.91492543235 -0.213617179704
34043772 0.00 1.06389520355 -1.91492543235 -0.213617179704
34043772 0.00 1.06389520355 -1.91492543235 -0.213617179704
34043772 0.00 1.06389520355 -1.91492543235 -0.213617179704
34048772 0.00 1.06003881723 -1.79285847252 -0.205987994715
34048772 0.00 1.06003881723 -1.79285847252 -0.205987994715
34048772 0.00 1.06003881723 -1.79285847252 -0.205987994715
34048772 0.00 1.06003881723 -1.79285847252 -0.205987994715
34048772 0.00 1.06003881723 -1.79285847252 -0.205987994715
34048772 0.00 1.06003881723 -1.79285847252 -0.205987994715
34048772 0.00 1.06003881723 -1.79285847252 -0.205987994715
34048772 0.00 1.06003881723 -1.79285847252 -0.205987994715
34053772 0.00 1.06003881723 -1.79285847252 -0.205987994715
34053772 0.00 1.06003881723 -1.79285847252 -0.205987994715
34053772 0.00 1.06003881723 -1.79285847252 -0.205987994715
34053772 0.00 1.06003881723 -1.79285847252 -0.205987994715
34053772 0.00 1.06003881723 -1.79285847252 -0.205987994715
34053772 0.00 1.06003881723 -1.79285847252 -0.205987994715
34053772 0.00 1.06003881723 -1.79285847252 -0.205987994715
34053772 0.00 1.06003881723 -1.79285847252 -0.205987994715
34058772 0.00 1.06260003643 -1.8004876575 -0.13732532981
34058772 0.00 1.06260003643 -1.8004876575 -0.13732532981
34058772 0.00 1.06260003643 -1.8004876575 -0.13732532981
34058772 0.00 1.06260003643 -1.8004876575 -0.13732532981
34058772 0.00 1.06260003643 -1.8004876575 -0.13732532981
34058772 0.00 1.06260003643 -1.8004876575 -0.13732532981
34058772 0.00 1.06260003643 -1.8004876575 -0.13732532981
34058772 0.00 1.06260003643 -1.8004876575 -0.13732532981
34063772 0.00 1.06260003643 -1.8004876575 -0.13732532981
34063772 0.00 1.06260003643 -1.8004876575 -0.13732532981
34063772 0.00 1.06260003643 -1.8004876575 -0.13732532981
34063772 0.00 1.06260003643 -1.8004876575 -0.13732532981
34063772 0.00 1.06260003643 -1.8004876575 -0.13732532981
34063772 0.00 1.06260003643 -1.8004876575 -0.13732532981
34063772 0.00 1.06260003643 -1.8004876575 -0.13732532981
34063772 0.00 1.06260003643 -1.8004876575 -0.13732532981
34068772 0.00 1.06393802499 -1.82337521247 -0.213617179704
34068772 0.00 1.06393802499 -1.82337521247 -0.213617179704
34068772 0.00 1.06393802499 -1.82337521247 -0.213617179704
34068772 0.00 1.06393802499 -1.82337521247 -0.213617179704
34068772 0.00 1.06393802499 -1.82337521247 -0.213617179704
34068772 0.00 1.06393802499 -1.82337521247 -0.213617179704
34068772 0.00 1.06393802499 -1.82337521247 -0.213617179704
34068772 0.00 1.06393802499 -1.82337521247 -0.213617179704
34073772 0.00 1.06393802499 -1.82337521247 -0.213617179704
34073772 0.00 1.06393802499 -1.82337521247 -0.213617179704
34073772 0.00 1.06393802499 -1.82337521247 -0.213617179704
34073772 0.00 1.06393802499 -1.82337521247 -0.213617179704
34073772 0.00 1.06393802499 -1.82337521247 -0.213617179704
34073772 0.00 1.06393802499 -1.82337521247 -0.213617179704
34073772 0.00 1.06393802499 -1.82337521247 -0.213617179704
34073772 0.00 1.06393802499 -1.82337521247 -0.213617179704
34078772 0.00 1.06564709607 -1.86915032241 -0.205987994715
34078772 0.00 1.06564709607 -1.86915032241 -0.205987994715
34078772 0.00 1.06564709607 -1.86915032241 -0.205987994715
34078772 0.00 1.06564709607 -1.86915032241 -0.205987994715
34078772 0.00 1.06564709607 -1.86915032241 -0.205987994715
34078772 0.00 1.06564709607 -1.86915032241 -0.205987994715
34078772 0.00 1.06564709607 -1.86915032241 -0.205987994715
34078772 0.00 1.06564709607 -1.86915032241 -0.205987994715
34083772 0.00 1.06564709607 -1.86915032241 -0.205987994715
34083772 0.00 1.06564709607 -1.86915032241 -0.205987994715
34083772 0.00 1.06564709607 -1.86915032241 -0.205987994715
34083772 0.00 1.06564709607 -1.86915032241 -0.205987994715
34083772 0.00 1.06564709607 -1.86915032241 -0.205987994715
34083772 0.00 1.06564709607 -1.86915032241 -0.205987994715
34083772 0.00 1.06564709607 -1.86915032241 -0.205987994715
34083772 0.00 1.06564709607 -1.86915032241 -0.205987994715
34088772 0.00 1.06430643103 -1.83863358245 -0.221246364693
34088772 0.00 1.06430643103 -1.83863358245 -0.221246364693
34088772 0.00 1.06430643103 -1.83863358245 -0.221246364693
34088772 0.00 1.06430643103 -1.83863358245 -0.221246364693
34088772 0.00 1.06430643103 -1.83863358245 -0.221246364693
34088772 0.00 1.06430643103 -1.83863358245 -0.221246364693
34088772 0.00 1.06430643103 -1.83863358245 -0.221246364693
34088772 0.00 1.06430643103 -1.83863358245 -0.221246364693
34093772 0.00 1.06430643103 -1.83863358245 -0.221246364693
34093772 0.00 1.06430643103 -1.83863358245 -0.221246364693
34093772 0.00 1.06430643103 -1.83863358245 -0.221246364693
34093772 0.00 1.06430643103 -1.83863358245 -0.221246364693
34093772 0.00 1.06430643103 -1.83863358245 -0.221246364693
34093772 0.00 1.06430643103 -1.83863358245 -0.221246364693
34093772 0.00 1.06430643103 -1.83863358245 -0.221246364693
34093772 0.00 1.06430643103 -1.83863358245 -0.221246364693
34098772 0.00 1.06438387199 -1.79285847252 -0.25939228964
34098772 0.00 1.06438387199 -1.79285847252 -0.25939228964
34098772 0.00 1.06438387199 -1.79285847252 -0.25939228964
34098772 0.00 1.06438387199 -1.79285847252 -0.25939228964
34098772 0.00 1.06438387199 -1.79285847252 -0.25939228964
34098772 0.00 1.06438387199 -1.79285847252 -0.25939228964
34098772 0.00 1.06438387199 -1.79285847252 -0.25939228964
34098772 0.00 1.06438387199 -1.79285847252 -0.25939228964
34103772 0.00 1.06438387199 -1.79285847252 -0.25939228964
34103772 0.00 1.06438387199 -1.79285847252 -0.25939228964
34103772 0.00 1.06438387199 -1.79285847252 -0.25939228964
34103772 0.00 1.06438387199 -1.79285847252 -0.25939228964
34103772 0.00 1.06438387199 -1.79285847252 -0.25939228964
34103772 0.00 1.06438387199 -1.79285847252 -0.25939228964
34103772 0.00 1.06438387199 -1.79285847252 -0.25939228964
34103772 0.00 1.06438387199 -1.79285847252 -0.25939228964
34108772 0.00 1.06279424667 -1.88440869239 -0.213617179704
34108772 0.00 1.06279424667 -1.88440869239 -0.213617179704
34108772 0.00 1.06279424667 -1.88440869239 -0.213617179704
34108772 0.00 1.06279424667 -1.88440869239 -0.213617179704
34108772 0.00 1.06279424667 -1.88440869239 -0.213617179704
34108772 0.00 1.06279424667 -1.88440869239 -0.213617179704
34108772 0.00 1.06279424667 -1.88440869239 -0.213617179704
34108772 0.00 1.06279424667 -1.88440869239 -0.213617179704
34113772 0.00 1.06279424667 -1.88440869239 -0.213617179704
34113772 0.00 1.06279424667 -1.88440869239 -0.213617179704
34113772 0.00 1.06279424667 -1.88440869239 -0.213617179704
34113772 0.00 1.06279424667 -1.88440869239 -0.213617179704
34113772 0.00 1.06279424667 -1.88440869239 -0.213617179704
34113772 0.00 1.06279424667 -1.88440869239 -0.213617179704
34113772 0.00 1.06279424667 -1.88440869239 -0.213617179704
34113772 0.00 1.06279424667 -1.88440869239 -0.213617179704
34118772 0.00 1.0645185363 -1.93018380232 -0.251763104651
34118772 0.00 1.0645185363 -1.93018380232 -0.251763104651
34118772 0.00 1.0645185363 -1.93018380232 -0.251763104651
34118772 0.00 1.0645185363 -1.93018380232 -0.251763104651
34118772 0.00 1.0645185363 -1.93018380232 -0.251763104651
34118772 0.00 1.0645185363 -1.93018380232 -0.251763104651
34118772 0.00 1.0645185363 -1.93018380232 -0.251763104651
34118772 0.00 1.0645185363 -1.93018380232 -0.251763104651
34123772 0.00 1.0645185363 -1.93018380232 -0.251763104651
34123772 0.00 1.0645185363 -1.93018380232 -0.251763104651
34123772 0.00 1.0645185363 -1.93018380232 -0.251763104651
34123772 0.00 1.0645185363 -1.93018380232 -0.251763104651
34123772 0.00 1.0645185363 -1.93018380232 -0.251763104651
34123772 0.00 1.0645185363 -1.93018380232 -0.251763104651
34123772 0.00 1.0645185363 -1.93018380232 -0.251763104651
34123772 0.00 1.0645185363 -1.93018380232 -0.251763104651
34128772 0.00 1.06440577445 -1.91492543235 -0.274650659619
34128772 0.00 1.06440577445 -1.91492543235 -0.274650659619
34128772 0.00 1.06440577445 -1.91492543235 -0.274650659619
34128772 0.00 1.06440577445 -1.91492543235 -0.274650659619
34128772 0.00 1.06440577445 -1.91492543235 -0.274650659619
34128772 0.00 1.06440577445 -1.91492543235 -0.274650659619
34128772 0.00 1.06440577445 -1.91492543235 -0.274650659619
34128772 0.00 1.06440577445 -1.91492543235 -0.274650659619
34133772 0.00 1.06440577445 -1.91492543235 -0.274650659619
34133772 0.00 1.06440577445 -1.91492543235 -0.274650659619
34133772 0.00 1.06440577445 -1.91492543235 -0.274650659619
34133772 0.00 1.06440577445 -1.91492543235 -0.274650659619
34133772 0.00 1.06440577445 -1.91492543235 -0.274650659619
34133772 0.00 1.06440577445 -1.91492543235 -0.274650659619
34133772 0.00 1.06440577445 -1.91492543235 -0.274650659619
34133772 0.00 1.06440577445 -1.91492543235 -0.274650659619
34138772 0.01 1.06505380358 -1.8767795074 -0.160212884778
34138772 0.01 1.06505380358 -1.8767795074 -0.160212884778
34138772 0.01 1.06505380358 -1.8767795074 -0.160212884778
34138772 0.01 1.06505380358 -1.8767795074 -0.160212884778
34138772 0.01 1.06505380358 -1.8767795074 -0.160212884778
34138772 0.01 1.06505380358 -1.8767795074 -0.160212884778
34138772 0.01 1.06505380358 -1.8767795074 -0.160212884778
34138772 0.01 1.06505380358 -1.8767795074 -0.160212884778
34143773 0.01 1.06505380358 -1.8767795074 -0.160212884778
34143773 0.01 1.06505380358 -1.8767795074 -0.160212884778
34143773 0.01 1.06505380358 -1.8767795074 -0.160212884778
34143773 0.01 1.06505380358 -1.8767795074 -0.160212884778
34143773 0.01 1.06505380358 -1.8767795074 -0.160212884778
34143773 0.01 1.06505380358 -1.8767795074 -0.160212884778
34143773 0.01 1.06505380358 -1.8767795074 -0.160212884778
34143773 0.01 1.06505380358 -1.8767795074 -0.160212884778
34148773 0.02 1.06365057762 -1.86915032241 -0.236504734672
34148773 0.02 1.06365057762 -1.86915032241 -0.236504734672
34148773 0.02 1.06365057762 -1.86915032241 -0.236504734672
34148773 0.02 1.06365057762 -1.86915032241 -0.236504734672
34148773 0.02 1.06365057762 -1.86915032241 -0.236504734672
34148773 0.02 1.06365057762 -1.86915032241 -0.236504734672
34148773 0.02 1.06365057762 -1.86915032241 -0.236504734672
34148773 0.02 1.06365057762 -1.86915032241 -0.236504734672
34153773 0.03 1.06365057762 -1.86915032241 -0.236504734672
34153773 0.03 1.06365057762 -1.86915032241 -0.236504734672
34153773 0.03 1.06365057762 -1.86915032241 -0.236504734672
34153773 0.03 1.06365057762 -1.86915032241 -0.236504734672
34153773 0.03 1.06365057762 -1.86915032241 -0.236504734672
34153773 0.03 1.06365057762 -1.86915032241 -0.236504734672
34153773 0.03 1.06365057762 -1.86915032241 -0.236504734672
34153773 0.03 1.06365057762 -1.86915032241 -0.236504734672
34158772 0.04 1.05996356997 -1.89966706237 -0.312796584566
34158772 0.04 1.05996356997 -1.89966706237 -0.312796584566
34158772 0.04 1.05996356997 -1.89966706237 -0.312796584566
34158772 0.04 1.05996356997 -1.89966706237 -0.312796584566
34158772 0.04 1.05996356997 -1.89966706237 -0.312796584566
34158772 0.04 1.05996356997 -1.89966706237 -0.312796584566
34158772 0.04 1.05996356997 -1.89966706237 -0.312796584566
34158772 0.04 1.05996356997 -1.89966706237 -0.312796584566
34163773 0.04 1.05996356997 -1.89966706237 -0.312796584566
34163773 0.04 1.05996356997 -1.89966706237 -0.312796584566
34163773 0.04 1.05996356997 -1.89966706237 -0.312796584566
34163773 0.04 1.05996356997 -1.89966706237 -0.312796584566
34163773 0.04 1.05996356997 -1.89966706237 -0.312796584566
34163773 0.04 1.05996356997 -1.89966706237 -0.312796584566
34163773 0.04 1.05996356997 -1.89966706237 -0.312796584566
34163773 0.04 1.05996356997 -1.89966706237 -0.312796584566
34168773 0.04 1.06270672211 -1.89966706237 -0.205987994715
34168773 0.04 1.06270672211 -1.89966706237 -0.205987994715
34168773 0.04 1.06270672211 -1.89966706237 -0.205987994715
34168773 0.04 1.06270672211 -1.89966706237 -0.205987994715
34168773 0.04 1.06270672211 -1.89966706237 -0.205987994715
34168773 0.04 1.06270672211 -1.89966706237 -0.205987994715
34168773 0.04 1.06270672211 -1.89966706237 -0.205987994715
34168773 0.04 1.06270672211 -1.89966706237 -0.205987994715
34173772 0.05 1.06270672211 -1.89966706237 -0.205987994715
34173772 0.05 1.06270672211 -1.89966706237 -0.205987994715
34173772 0.05 1.06270672211 -1.89966706237 -0.205987994715
34173772 0.05 1.06270672211 -1.89966706237 -0.205987994715
34173772 0.05 1.06270672211 -1.89966706237 -0.205987994715
34173772 0.05 1.06270672211 -1.89966706237 -0.205987994715
34173772 0.05 1.06270672211 -1.89966706237 -0.205987994715
34173772 0.05 1.06270672211 -1.89966706237 -0.205987994715
34178772 0.08 1.06398412539 -1.86152113742 -0.205987994715
34178772 0.08 1.06398412539 -1.86152113742 -0.205987994715
34178772 0.08 1.06398412539 -1.86152113742 -0.205987994715
34178772 0.08 1.06398412539 -1.86152113742 -0.205987994715
34178772 0.08 1.06398412539 -1.86152113742 -0.205987994715
34178772 0.08 1.06398412539 -1.86152113742 -0.205987994715
34178772 0.08 1.06398412539 -1.86152113742 -0.205987994715
34178772 0.08 1.06398412539 -1.86152113742 -0.205987994715
34183773 0.13 1.06398412539 -1.86152113742 -0.205987994715
34183773 0.13 1.06398412539 -1.86152113742 -0.205987994715
34183773 0.13 1.06398412539 -1.86152113742 -0.205987994715
34183773 0.13 1.06398412539 -1.86152113742 -0.205987994715
34183773 0.13 1.06398412539 -1.86152113742 -0.205987994715
34183773 0.13 1.06398412539 -1.86152113742 -0.205987994715
34183773 0.13 1.06398412539 -1.86152113742 -0.205987994715
34183773 0.13 1.06398412539 -1.86152113742 -0.205987994715
34188773 0.17 1.06599577839 -1.85389195243 -0.205987994715
34188773 0.17 1.06599577839 -1.85389195243 -0.205987994715
34188773 0.17 1.06599577839 -1.85389195243 -0.205987994715
34188773 0.17 1.06599577839 -1.85389195243 -0.205987994715
34188773 0.17 1.06599577839 -1.85389195243 -0.205987994715
34188773 0.17 1.06599577839 -1.85389195243 -0.205987994715
34188773 0.17 1.06599577839 -1.85389195243 -0.205987994715
34188773 0.17 1.06599577839 -1.85389195243 -0.205987994715
34193773 0.17 1.06599577839 -1.85389195243 -0.205987994715
34193773 0.17 1.06599577839 -1.85389195243 -0.205987994715
34193773 0.17 1.06599577839 -1.85389195243 -0.205987994715
34193773 0.17 1.06599577839 -1.85389195243 -0.205987994715
34193773 0.17 1.06599577839 -1.85389195243 -0.205987994715
34193773 0.17 1.06599577839 -1.85389195243 -0.205987994715
34193773 0.17 1.06599577839 -1.85389195243 -0.205987994715
34193773 0.17 1.06599577839 -1.85389195243 -0.205987994715
34198773 0.18 1.06749610439 -1.99884646723 -0.167842069767
34198773 0.18 1.06749610439 -1.99884646723 -0.167842069767
34198773 0.18 1.06749610439 -1.99884646723 -0.167842069767
34198773 0.18 1.06749610439 -1.99884646723 -0.167842069767
34198773 0.18 1.06749610439 -1.99884646723 -0.167842069767
34198773 0.18 1.06749610439 -1.99884646723 -0.167842069767
34198773 0.18 1.06749610439 -1.99884646723 -0.167842069767
34198773 0.18 1.06749610439 -1.99884646723 -0.167842069767
34203773 0.20 1.06749610439 -1.99884646723 -0.167842069767
34203773 0.20 1.06749610439 -1.99884646723 -0.167842069767
34203773 0.20 1.06749610439 -1.99884646723 -0.167842069767
34203773 0.20 1.06749610439 -1.99884646723 -0.167842069767
34203773 0.20 1.06749610439 -1.99884646723 -0.167842069767
34203773 0.20 1.06749610439 -1.99884646723 -0.167842069767
34203773 0.20 1.06749610439 -1.99884646723 -0.167842069767
34203773 0.20 1.06749610439 -1.99884646723 -0.167842069767
34208773 0.22 1.06463840867 -1.82337521247 -0.167842069767
34208773 0.22 1.06463840867 -1.82337521247 -0.167842069767
34208773 0.22 1.06463840867 -1.82337521247 -0.167842069767
34208773 0.22 1.06463840867 -1.82337521247 -0.167842069767
34208773 0.22 1.06463840867 -1.82337521247 -0.167842069767
34208773 0.22 1.06463840867 -1.82337521247 -0.167842069767
34208773 0.22 1.06463840867 -1.82337521247 -0.167842069767
34208773 0.22 1.06463840867 -1.82337521247 -0.167842069767
34213773 0.26 1.06463840867 -1.82337521247 -0.167842069767
34213773 0.26 1.06463840867 -1.82337521247 -0.167842069767
34213773 0.26 1.06463840867 -1.82337521247 -0.167842069767
34213773 0.26 1.06463840867 -1.82337521247 -0.167842069767
34213773 0.26 1.06463840867 -1.82337521247 -0.167842069767
34213773 0.26 1.06463840867 -1.82337521247 -0.167842069767
34213773 0.26 1.06463840867 -1.82337521247 -0.167842069767
34213773 0.26 1.06463840867 -1.82337521247 -0.167842069767
34218773 0.28 1.06735179713 -1.75471254757 -0.175471254757
34218773 0.28 1.06735179713 -1.75471254757 -0.175471254757
34218773 0.28 1.06735179713 -1.75471254757 -0.175471254757
34218773 0.28 1.06735179713 -1.75471254757 -0.175471254757
34218773 0.28 1.06735179713 -1.75471254757 -0.175471254757
34218773 0.28 1.06735179713 -1.75471254757 -0.175471254757
34218773 0.28 1.06735179713 -1.75471254757 -0.175471254757
34218773 0.28 1.06735179713 -1.75471254757 -0.175471254757
34223773 0.27 1.06735179713 -1.75471254757 -0.175471254757
34223773 0.27 1.06735179713 -1.75471254757 -0.175471254757
34223773 0.27 1.06735179713 -1.75471254757 -0.175471254757
34223773 0.27 1.06735179713 -1.75471254757 -0.175471254757
34223773 0.27 1.06735179713 -1.75471254757 -0.175471254757
34223773 0.27 1.06735179713 -1.75471254757 -0.175471254757
34223773 0.27 1.06735179713 -1.75471254757 -0.175471254757
34223773 0.27 1.06735179713 -1.75471254757 -0.175471254757
34228773 0.25 1.05976824164 -1.83100439746 -0.190729624736
34228773 0.25 1.05976824164 -1.83100439746 -0.190729624736
34228773 0.25 1.05976824164 -1.83100439746 -0.190729624736
34228773 0.25 1.05976824164 -1.83100439746 -0.190729624736
34228773 0.25 1.05976824164 -1.83100439746 -0.190729624736
34228773 0.25 1.05976824164 -1.83100439746 -0.190729624736
34228773 0.25 1.05976824164 -1.83100439746 -0.190729624736
34228773 0.25 1.05976824164 -1.83100439746 -0.190729624736
34233773 0.21 1.05976824164 -1.83100439746 -0.190729624736
34233773 0.21 1.05976824164 -1.83100439746 -0.190729624736
34233773 0.21 1.05976824164 -1.83100439746 -0.190729624736
34233773 0.21 1.05976824164 -1.83100439746 -0.190729624736
34233773 0.21 1.05976824164 -1.83100439746 -0.190729624736
34233773 0.21 1.05976824164 -1.83100439746 -0.190729624736
34233773 0.21 1.05976824164 -1.83100439746 -0.190729624736
34233773 0.21 1.05976824164 -1.83100439746 -0.190729624736
34238773 0.17 1.05481345696 -1.88440869239 -0.175471254757
34238773 0.17 1.05481345696 -1.88440869239 -0.175471254757
34238773 0.17 1.05481345696 -1.88440869239 -0.175471254757
34238773 0.17 1.05481345696 -1.88440869239 -0.175471254757
34238773 0.17 1.05481345696 -1.88440869239 -0.175471254757
34238773 0.17 1.05481345696 -1.88440869239 -0.175471254757
34238773 0.17 1.05481345696 -1.88440869239 -0.175471254757
34238773 0.17 1.05481345696 -1.88440869239 -0.175471254757
34243773 0.17 1.05481345696 -1.88440869239 -0.175471254757
34243773 0.17 1.05481345696 -1.88440869239 -0.175471254757
34243773 0.17 1.05481345696 -1.88440869239 -0.175471254757
34243773 0.17 1.05481345696 -1.88440869239 -0.175471254757
34243773 0.17 1.05481345696 -1.88440869239 -0.175471254757
34243773 0.17 1.05481345696 -1.88440869239 -0.175471254757
34243773 0.17 1.05481345696 -1.88440869239 -0.175471254757
34243773 0.17 1.05481345696 -1.88440869239 -0.175471254757
34248773 0.17 1.0555624441 -1.82337521247 -0.144954514799
34248773 0.17 1.0555624441 -1.82337521247 -0.144954514799
34248773 0.17 1.0555624441 -1.82337521247 -0.144954514799
34248773 0.17 1.0555624441 -1.82337521247 -0.144954514799
34248773 0.17 1.0555624441 -1.82337521247 -0.144954514799
34248773 0.17 1.0555624441 -1.82337521247 -0.144954514799
34248773 0.17 1.0555624441 -1.82337521247 -0.144954514799
34248773 0.17 1.0555624441 -1.82337521247 -0.144954514799
34253773 0.14 1.0555624441 -1.82337521247 -0.144954514799
34253773 0.14 1.0555624441 -1.82337521247 -0.144954514799
34253773 0.14 1.0555624441 -1.82337521247 -0.144954514799
34253773 0.14 1.0555624441 -1.82337521247 -0.144954514799
34253773 0.14 1.0555624441 -1.82337521247 -0.144954514799
34253773 0.14 1.0555624441 -1.82337521247 -0.144954514799
34253773 0.14 1.0555624441 -1.82337521247 -0.144954514799
34253773 0.14 1.0555624441 -1.82337521247 -0.144954514799
34258773 0.12 1.05168046729 -1.82337521247 -0.198358809725
34258773 0.12 1.05168046729 -1.82337521247 -0.198358809725
34258773 0.12 1.05168046729 -1.82337521247 -0.198358809725
34258773 0.12 1.05168046729 -1.82337521247 -0.198358809725
34258773 0.12 1.05168046729 -1.82337521247 -0.198358809725
34258773 0.12 1.05168046729 -1.82337521247 -0.198358809725
34258773 0.12 1.05168046729 -1.82337521247 -0.198358809725
34258773 0.12 1.05168046729 -1.82337521247 -0.198358809725
34263773 0.09 1.05168046729 -1.82337521247 -0.198358809725
34263773 0.09 1.05168046729 -1.82337521247 -0.198358809725
34263773 0.09 1.05168046729 -1.82337521247 -0.198358809725
34263773 0.09 1.05168046729 -1.82337521247 -0.198358809725
34263773 0.09 1.05168046729 -1.82337521247 -0.198358809725
34263773 0.09 1.05168046729 -1.82337521247 -0.198358809725
34263773 0.09 1.05168046729 -1.82337521247 -0.198358809725
34263773 0.09 1.05168046729 -1.82337521247 -0.198358809725
34268773 0.07 1.07446402437 -1.83100439746 -0.0991794048625
34268773 0.07 1.07446402437 -1.83100439746 -0.0991794048625
34268773 0.07 1.07446402437 -1.83100439746 -0.0991794048625
34268773 0.07 1.07446402437 -1.83100439746 -0.0991794048625
34268773 0.07 1.07446402437 -1.83100439746 -0.0991794048625
34268773 0.07 1.07446402437 -1.83100439746 -0.0991794048625
34268773 0.07 1.07446402437 -1.83100439746 -0.0991794048625
34268773 0.07 1.07446402437 -1.83100439746 -0.0991794048625
34273773 0.07 1.07446402437 -1.83100439746 -0.0991794048625
34273773 0.07 1.07446402437 -1.83100439746 -0.0991794048625
34273773 0.07 1.07446402437 -1.83100439746 -0.0991794048625
34273773 0.07 1.07446402437 -1.83100439746 -0.0991794048625
34273773 0.07 1.07446402437 -1.83100439746 -0.0991794048625
34273773 0.07 1.07446402437 -1.83100439746 -0.0991794048625
34273773 0.07 1.07446402437 -1.83100439746 -0.0991794048625
34273773 0.07 1.07446402437 -1.83100439746 -0.0991794048625
34278773 0.08 1.07446402437 -1.76997091755 -0.160212884778
34278773 0.08 1.07446402437 -1.76997091755 -0.160212884778
34278773 0.08 1.07446402437 -1.76997091755 -0.160212884778
34278773 0.08 1.07446402437 -1.76997091755 -0.160212884778
34278773 0.08 1.07446402437 -1.76997091755 -0.160212884778
34278773 0.08 1.07446402437 -1.76997091755 -0.160212884778
34278773 0.08 1.07446402437 -1.76997091755 -0.160212884778
34278773 0.08 1.07446402437 -1.76997091755 -0.160212884778
34283773 0.08 1.08171171332 -1.76997091755 -0.160212884778
34283773 0.08 1.08171171332 -1.76997091755 -0.160212884778
34283773 0.08 1.08171171332 -1.76997091755 -0.160212884778
34283773 0.08 1.08171171332 -1.76997091755 -0.160212884778
34283773 0.08 1.08171171332 -1.76997091755 -0.160212884778
34283773 0.08 1.08171171332 -1.76997091755 -0.160212884778
34283773 0.08 1.08171171332 -1.76997091755 -0.160212884778
34283773 0.08 1.08171171332 -1.76997091755 -0.160212884778
34288773 0.09 1.08171171332 -1.76997091755 -0.13732532981
34288773 0.09 1.08171171332 -1.76997091755 -0.13732532981
34288773 0.09 1.08171171332 -1.76997091755 -0.13732532981
34288773 0.09 1.08171171332 -1.76997091755 -0.13732532981
34288773 0.09 1.08171171332 -1.76997091755 -0.13732532981
34288773 0.09 1.08171171332 -1.76997091755 -0.13732532981
34288773 0.09 1.08171171332 -1.76997091755 -0.13732532981
34288773 0.09 1.08171171332 -1.76997091755 -0.13732532981
34293773 0.09 1.06226262253 -1.76997091755 -0.13732532981
34293773 0.09 1.06226262253 -1.76997091755 -0.13732532981
34293773 0.09 1.06226262253 -1.76997091755 -0.13732532981
34293773 0.09 1.06226262253 -1.76997091755 -0.13732532981
34293773 0.09 1.06226262253 -1.76997091755 -0.13732532981
34293773 0.09 1.06226262253 -1.76997091755 -0.13732532981
34293773 0.09 1.06226262253 -1.76997091755 -0.13732532981
34293773 0.09 1.06226262253 -1.76997091755 -0.13732532981
34298774 0.08 1.06226262253 -1.79285847252 -0.122066959831
34298774 0.08 1.06226262253 -1.79285847252 -0.122066959831
34298774 0.08 1.06226262253 -1.79285847252 -0.122066959831
34298774 0.08 1.06226262253 -1.79285847252 -0.122066959831
34298774 0.08 1.06226262253 -1.79285847252 -0.122066959831
34298774 0.08 1.06226262253 -1.79285847252 -0.122066959831
34298774 0.08 1.06226262253 -1.79285847252 -0.122066959831
34298774 0.08 1.06226262253 -1.79285847252 -0.122066959831
34303774 0.10 1.06379015164 -1.79285847252 -0.122066959831
34303774 0.10 1.06379015164 -1.79285847252 -0.122066959831
34303774 0.10 1.06379015164 -1.79285847252 -0.122066959831
34303774 0.10 1.06379015164 -1.79285847252 -0.122066959831
34303774 0.10 1.06379015164 -1.79285847252 -0.122066959831
34303774 0.10 1.06379015164 -1.79285847252 -0.122066959831
34303774 0.10 1.06379015164 -1.79285847252 -0.122066959831
34303774 0.10 1.06379015164 -1.79285847252 -0.122066959831
34308774 0.10 1.06379015164 -1.97595891226 -0.167842069767
34308774 0.10 1.06379015164 -1.97595891226 -0.167842069767
34308774 0.10 1.06379015164 -1.97595891226 -0.167842069767
34308774 0.10 1.06379015164 -1.97595891226 -0.167842069767
34308774 0.10 1.06379015164 -1.97595891226 -0.167842069767
34308774 0.10 1.06379015164 -1.97595891226 -0.167842069767
34308774 0.10 1.06379015164 -1.97595891226 -0.167842069767
34308774 0.10 1.06379015164 -1.97595891226 -0.167842069767
34313773 0.11 1.0561646202 -1.97595891226 -0.167842069767
34313773 0.11 1.0561646202 -1.97595891226 -0.167842069767
34313773 0.11 1.0561646202 -1.97595891226 -0.167842069767
34313773 0.11 1.0561646202 -1.97595891226 -0.167842069767
34313773 0.11 1.0561646202 -1.97595891226 -0.167842069767
34313773 0.11 1.0561646202 -1.97595891226 -0.167842069767
34313773 0.11 1.0561646202 -1.97595891226 -0.167842069767
34313773 0.11 1.0561646202 -1.97595891226 -0.167842069767
34318774 0.11 1.0561646202 -1.85389195243 -0.205987994715
34318774 0.11 1.0561646202 -1.85389195243 -0.205987994715
34318774 0.11 1.0561646202 -1.85389195243 -0.205987994715
34318774 0.11 1.0561646202 -1.85389195243 -0.205987994715
34318774 0.11 1.0561646202 -1.85389195243 -0.205987994715
34318774 0.11 1.0561646202 -1.85389195243 -0.205987994715
34318774 0.11 1.0561646202 -1.85389195243 -0.205987994715
34318774 0.11 1.0561646202 -1.85389195243 -0.205987994715
34323774 0.12 1.06263385834 -1.85389195243 -0.205987994715
34323774 0.12 1.06263385834 -1.85389195243 -0.205987994715
34323774 0.12 1.06263385834 -1.85389195243 -0.205987994715
34323774 0.12 1.06263385834 -1.85389195243 -0.205987994715
34323774 0.12 1.06263385834 -1.85389195243 -0.205987994715
34323774 0.12 1.06263385834 -1.85389195243 -0.205987994715
34323774 0.12 1.06263385834 -1.85389195243 -0.205987994715
34323774 0.12 1.06263385834 -1.85389195243 -0.205987994715
34328773 0.11 1.06263385834 -2.0217340222 -0.175471254757
34328773 0.11 1.06263385834 -2.0217340222 -0.175471254757
34328773 0.11 1.06263385834 -2.0217340222 -0.175471254757
34328773 0.11 1.06263385834 -2.0217340222 -0.175471254757
34328773 0.11 1.06263385834 -2.0217340222 -0.175471254757
34328773 0.11 1.06263385834 -2.0217340222 -0.175471254757
34328773 0.11 1.06263385834 -2.0217340222 -0.175471254757
34328773 0.11 1.06263385834 -2.0217340222 -0.175471254757
34333774 0.11 1.06683865189 -2.0217340222 -0.175471254757
34333774 0.11 1.06683865189 -2.0217340222 -0.175471254757
34333774 0.11 1.06683865189 -2.0217340222 -0.175471254757
34333774 0.11 1.06683865189 -2.0217340222 -0.175471254757
34333774 0.11 1.06683865189 -2.0217340222 -0.175471254757
34333774 0.11 1.06683865189 -2.0217340222 -0.175471254757
34333774 0.11 1.06683865189 -2.0217340222 -0.175471254757
34333774 0.11 1.06683865189 -2.0217340222 -0.175471254757
34338774 0.10 1.06683865189 -1.9454421723 -0.183100439746
34338774 0.10 1.06683865189 -1.9454421723 -0.183100439746
34338774 0.10 1.06683865189 -1.9454421723 -0.183100439746
34338774 0.10 1.06683865189 -1.9454421723 -0.183100439746
34338774 0.10 1.06683865189 -1.9454421723 -0.183100439746
34338774 0.10 1.06683865189 -1.9454421723 -0.183100439746
34338774 0.10 1.06683865189 -1.9454421723 -0.183100439746
34338774 0.10 1.06683865189 -1.9454421723 -0.183100439746
34343774 0.09 1.05608500329 -1.9454421723 -0.183100439746
34343774 0.09 1.05608500329 -1.9454421723 -0.183100439746
34343774 0.09 1.05608500329 -1.9454421723 -0.183100439746
34343774 0.09 1.05608500329 -1.9454421723 -0.183100439746
34343774 0.09 1.05608500329 -1.9454421723 -0.183100439746
34343774 0.09 1.05608500329 -1.9454421723 -0.183100439746
34343774 0.09 1.05608500329 -1.9454421723 -0.183100439746
34343774 0.09 1.05608500329 -1.9454421723 -0.183100439746
34348774 0.09 1.05608500329 -1.77760010254 -0.13732532981
34348774 0.09 1.05608500329 -1.77760010254 -0.13732532981
34348774 0.09 1.05608500329 -1.77760010254 -0.13732532981
34348774 0.09 1.05608500329 -1.77760010254 -0.13732532981
34348774 0.09 1.05608500329 -1.77760010254 -0.13732532981
34348774 0.09 1.05608500329 -1.77760010254 -0.13732532981
34348774 0.09 1.05608500329 -1.77760010254 -0.13732532981
34348774 0.09 1.05608500329 -1.77760010254 -0.13732532981
34353774 0.10 1.06071005491 -1.77760010254 -0.13732532981
34353774 0.10 1.06071005491 -1.77760010254 -0.13732532981
34353774 0.10 1.06071005491 -1.77760010254 -0.13732532981
34353774 0.10 1.06071005491 -1.77760010254 -0.13732532981
34353774 0.10 1.06071005491 -1.77760010254 -0.13732532981
34353774 0.10 1.06071005491 -1.77760010254 -0.13732532981
34353774 0.10 1.06071005491 -1.77760010254 -0.13732532981
34353774 0.10 1.06071005491 -1.77760010254 -0.13732532981
34358773 0.11 1.06071005491 -1.63264558774 -0.198358809725
34358773 0.11 1.06071005491 -1.63264558774 -0.198358809725
34358773 0.11 1.06071005491 -1.63264558774 -0.198358809725
34358773 0.11 1.06071005491 -1.63264558774 -0.198358809725
34358773 0.11 1.06071005491 -1.63264558774 -0.198358809725
34358773 0.11 1.06071005491 -1.63264558774 -0.198358809725
34358773 0.11 1.06071005491 -1.63264558774 -0.198358809725
34358773 0.11 1.06071005491 -1.63264558774 -0.198358809725
34363774 0.10 1.05828298427 -1.63264558774 -0.198358809725
34363774 0.10 1.05828298427 -1.63264558774 -0.198358809725
34363774 0.10 1.05828298427 -1.63264558774 -0.198358809725
34363774 0.10 1.05828298427 -1.63264558774 -0.198358809725
34363774 0.10 1.05828298427 -1.63264558774 -0.198358809725
34363774 0.10 1.05828298427 -1.63264558774 -0.198358809725
34363774 0.10 1.05828298427 -1.63264558774 -0.198358809725
34363774 0.10 1.05828298427 -1.63264558774 -0.198358809725
34368774 0.11 1.05828298427 -1.60975803277 -0.221246364693
34368774 0.11 1.05828298427 -1.60975803277 -0.221246364693
34368774 0.11 1.05828298427 -1.60975803277 -0.221246364693
34368774 0.11 1.05828298427 -1.60975803277 -0.221246364693
34368774 0.11 1.05828298427 -1.60975803277 -0.221246364693
34368774 0.11 1.05828298427 -1.60975803277 -0.221246364693
34368774 0.11 1.05828298427 -1.60975803277 -0.221246364693
34368774 0.11 1.05828298427 -1.60975803277 -0.221246364693
34373774 0.10 1.06819798438 -1.60975803277 -0.221246364693
34373774 0.10 1.06819798438 -1.60975803277 -0.221246364693
34373774 0.10 1.06819798438 -1.60975803277 -0.221246364693
34373774 0.10 1.06819798438 -1.60975803277 -0.221246364693
34373774 0.10 1.06819798438 -1.60975803277 -0.221246364693
34373774 0.10 1.06819798438 -1.60975803277 -0.221246364693
34373774 0.10 1.06819798438 -1.60975803277 -0.221246364693
34373774 0.10 1.06819798438 -1.60975803277 -0.221246364693
34378774 0.09 1.06819798438 -1.81574602748 -0.244133919662
34378774 0.09 1.06819798438 -1.81574602748 -0.244133919662
34378774 0.09 1.06819798438 -1.81574602748 -0.244133919662
34378774 0.09 1.06819798438 -1.81574602748 -0.244133919662
34378774 0.09 1.06819798438 -1.81574602748 -0.244133919662
34378774 0.09 1.06819798438 -1.81574602748 -0.244133919662
34378774 0.09 1.06819798438 -1.81574602748 -0.244133919662
34378774 0.09 1.06819798438 -1.81574602748 -0.244133919662
34383774 0.10 1.07347345681 -1.81574602748 -0.244133919662
34383774 0.10 1.07347345681 -1.81574602748 -0.244133919662
34383774 0.10 1.07347345681 -1.81574602748 -0.244133919662
34383774 0.10 1.07347345681 -1.81574602748 -0.244133919662
34383774 0.10 1.07347345681 -1.81574602748 -0.244133919662
34383774 0.10 1.07347345681 -1.81574602748 -0.244133919662
34383774 0.10 1.07347345681 -1.81574602748 -0.244133919662
34383774 0.10 1.07347345681 -1.81574602748 -0.244133919662
34388774 0.11 1.07347345681 -2.20483446194 -0.228875549683
34388774 0.11 1.07347345681 -2.20483446194 -0.228875549683
34388774 0.11 1.07347345681 -2.20483446194 -0.228875549683
34388774 0.11 1.07347345681 -2.20483446194 -0.228875549683
34388774 0.11 1.07347345681 -2.20483446194 -0.228875549683
34388774 0.11 1.07347345681 -2.20483446194 -0.228875549683
34388774 0.11 1.07347345681 -2.20483446194 -0.228875549683
34388774 0.11 1.07347345681 -2.20483446194 -0.228875549683
34393774 0.11 1.06234436789 -2.20483446194 -0.228875549683
34393774 0.11 1.06234436789 -2.20483446194 -0.228875549683
34393774 0.11 1.06234436789 -2.20483446194 -0.228875549683
34393774 0.11 1.06234436789 -2.20483446194 -0.228875549683
34393774 0.11 1.06234436789 -2.20483446194 -0.228875549683
34393774 0.11 1.06234436789 -2.20483446194 -0.228875549683
34393774 0.11 1.06234436789 -2.20483446194 -0.228875549683
34393774 0.11 1.06234436789 -2.20483446194 -0.228875549683
34398774 0.12 1.06234436789 -2.01410483721 -0.152583699789
34398774 0.12 1.06234436789 -2.01410483721 -0.152583699789
34398774 0.12 1.06234436789 -2.01410483721 -0.152583699789
34398774 0.12 1.06234436789 -2.01410483721 -0.152583699789
34398774 0.12 1.06234436789 -2.01410483721 -0.152583699789
34398774 0.12 1.06234436789 -2.01410483721 -0.152583699789
34398774 0.12 1.06234436789 -2.01410483721 -0.152583699789
34398774 0.12 1.06234436789 -2.01410483721 -0.152583699789
34403774 0.10 1.06917986319 -2.01410483721 -0.152583699789
34403774 0.10 1.06917986319 -2.01410483721 -0.152583699789
34403774 0.10 1.06917986319 -2.01410483721 -0.152583699789
34403774 0.10 1.06917986319 -2.01410483721 -0.152583699789
34403774 0.10 1.06917986319 -2.01410483721 -0.152583699789
34403774 0.10 1.06917986319 -2.01410483721 -0.152583699789
34403774 0.10 1.06917986319 -2.01410483721 -0.152583699789
34403774 0.10 1.06917986319 -2.01410483721 -0.152583699789
34408774 0.09 1.06917986319 -1.93781298731 -0.228875549683
34408774 0.09 1.06917986319 -1.93781298731 -0.228875549683
34408774 0.09 1.06917986319 -1.93781298731 -0.228875549683
34408774 0.09 1.06917986319 -1.93781298731 -0.228875549683
34408774 0.09 1.06917986319 -1.93781298731 -0.228875549683
34408774 0.09 1.06917986319 -1.93781298731 -0.228875549683
34408774 0.09 1.06917986319 -1.93781298731 -0.228875549683
34408774 0.09 1.06917986319 -1.93781298731 -0.228875549683
34413774 0.09 1.05717878158 -1.93781298731 -0.228875549683
34413774 0.09 1.05717878158 -1.93781298731 -0.228875549683
34413774 0.09 1.05717878158 -1.93781298731 -0.228875549683
34413774 0.09 1.05717878158 -1.93781298731 -0.228875549683
34413774 0.09 1.05717878158 -1.93781298731 -0.228875549683
34413774 0.09 1.05717878158 -1.93781298731 -0.228875549683
34413774 0.09 1.05717878158 -1.93781298731 -0.228875549683
34413774 0.09 1.05717878158 -1.93781298731 -0.228875549683
34418774 0.08 1.05717878158 -1.93781298731 -0.228875549683
34418774 0.08 1.05717878158 -1.93781298731 -0.228875549683
34418774 0.08 1.05717878158 -1.93781298731 -0.228875549683
34418774 0.08 1.05717878158 -1.93781298731 -0.228875549683
34418774 0.08 1.05717878158 -1.93781298731 -0.228875549683
34418774 0.08 1.05717878158 -1.93781298731 -0.228875549683
34418774 0.08 1.05717878158 -1.93781298731 -0.228875549683
34418774 0.08 1.05717878158 -1.93781298731 -0.228875549683
34423774 0.09 1.05930479916 -1.79285847252 -0.251763104651
34423774 0.09 1.05930479916 -1.79285847252 -0.251763104651
34423774 0.09 1.05930479916 -1.79285847252 -0.251763104651
34423774 0.09 1.05930479916 -1.79285847252 -0.251763104651
34423774 0.09 1.05930479916 -1.79285847252 -0.251763104651
34423774 0.09 1.05930479916 -1.79285847252 -0.251763104651
34423774 0.09 1.05930479916 -1.79285847252 -0.251763104651
34423774 0.09 1.05930479916 -1.79285847252 -0.251763104651
34428774 0.09 1.05930479916 -1.79285847252 -0.251763104651
34428774 0.09 1.05930479916 -1.79285847252 -0.251763104651
34428774 0.09 1.05930479916 -1.79285847252 -0.251763104651
34428774 0.09 1.05930479916 -1.79285847252 -0.251763104651
34428774 0.09 1.05930479916 -1.79285847252 -0.251763104651
34428774 0.09 1.05930479916 -1.79285847252 -0.251763104651
34428774 0.09 1.05930479916 -1.79285847252 -0.251763104651
34428774 0.09 1.05930479916 -1.79285847252 -0.251763104651
34433774 0.09 1.06648867676 -1.65553314271 -0.144954514799
34433774 0.09 1.06648867676 -1.65553314271 -0.144954514799
34433774 0.09 1.06648867676 -1.65553314271 -0.144954514799
34433774 0.09 1.06648867676 -1.65553314271 -0.144954514799
34433774 0.09 1.06648867676 -1.65553314271 -0.144954514799
34433774 0.09 1.06648867676 -1.65553314271 -0.144954514799
34433774 0.09 1.06648867676 -1.65553314271 -0.144954514799
34433774 0.09 1.06648867676 -1.65553314271 -0.144954514799
34438774 0.09 1.06648867676 -1.65553314271 -0.144954514799
34438774 0.09 1.06648867676 -1.65553314271 -0.144954514799
34438774 0.09 1.06648867676 -1.65553314271 -0.144954514799
34438774 0.09 1.06648867676 -1.65553314271 -0.144954514799
34438774 0.09 1.06648867676 -1.65553314271 -0.144954514799
34438774 0.09 1.06648867676 -1.65553314271 -0.144954514799
34438774 0.09 1.06648867676 -1.65553314271 -0.144954514799
34438774 0.09 1.06648867676 -1.65553314271 -0.144954514799
34443774 0.09 1.06314840061 -1.60975803277 -0.0457751099366
34443774 0.09 1.06314840061 -1.60975803277 -0.0457751099366
34443774 0.09 1.06314840061 -1.60975803277 -0.0457751099366
34443774 0.09 1.06314840061 -1.60975803277 -0.0457751099366
34443774 0.09 1.06314840061 -1.60975803277 -0.0457751099366
34443774 0.09 1.06314840061 -1.60975803277 -0.0457751099366
34443774 0.09 1.06314840061 -1.60975803277 -0.0457751099366
34443774 0.09 1.06314840061 -1.60975803277 -0.0457751099366
34448774 0.08 1.06314840061 -1.60975803277 -0.0457751099366
34448774 0.08 1.06314840061 -1.60975803277 -0.0457751099366
34448774 0.08 1.06314840061 -1.60975803277 -0.0457751099366
34448774 0.08 1.06314840061 -1.60975803277 -0.0457751099366
34448774 0.08 1.06314840061 -1.60975803277 -0.0457751099366
34448774 0.08 1.06314840061 -1.60975803277 -0.0457751099366
34448774 0.08 1.06314840061 -1.60975803277 -0.0457751099366
34448774 0.08 1.06314840061 -1.60975803277 -0.0457751099366
34453774 0.08 1.0651528045 -1.78522928753 -0.144954514799
34453774 0.08 1.0651528045 -1.78522928753 -0.144954514799
34453774 0.08 1.0651528045 -1.78522928753 -0.144954514799
34453774 0.08 1.0651528045 -1.78522928753 -0.144954514799
34453774 0.08 1.0651528045 -1.78522928753 -0.144954514799
34453774 0.08 1.0651528045 -1.78522928753 -0.144954514799
34453774 0.08 1.0651528045 -1.78522928753 -0.144954514799
34453774 0.08 1.0651528045 -1.78522928753 -0.144954514799
34458774 0.07 1.0651528045 -1.78522928753 -0.144954514799
34458774 0.07 1.0651528045 -1.78522928753 -0.144954514799
34458774 0.07 1.0651528045 -1.78522928753 -0.144954514799
34458774 0.07 1.0651528045 -1.78522928753 -0.144954514799
34458774 0.07 1.0651528045 -1.78522928753 -0.144954514799
34458774 0.07 1.0651528045 -1.78522928753 -0.144954514799
34458774 0.07 1.0651528045 -1.78522928753 -0.144954514799
34458774 0.07 1.0651528045 -1.78522928753 -0.144954514799
34463774 0.07 1.0583452042 -2.04462157717 -0.144954514799
34463774 0.07 1.0583452042 -2.04462157717 -0.144954514799
34463774 0.07 1.0583452042 -2.04462157717 -0.144954514799
34463774 0.07 1.0583452042 -2.04462157717 -0.144954514799
34463774 0.07 1.0583452042 -2.04462157717 -0.144954514799
34463774 0.07 1.0583452042 -2.04462157717 -0.144954514799
34463774 0.07 1.0583452042 -2.04462157717 -0.144954514799
34463774 0.07 1.0583452042 -2.04462157717 -0.144954514799
34468775 0.06 1.0583452042 -2.04462157717 -0.144954514799
34468775 0.06 1.0583452042 -2.04462157717 -0.144954514799
34468775 0.06 1.0583452042 -2.04462157717 -0.144954514799
34468775 0.06 1.0583452042 -2.04462157717 -0.144954514799
34468775 0.06 1.0583452042 -2.04462157717 -0.144954514799
34468775 0.06 1.0583452042 -2.04462157717 -0.144954514799
34468775 0.06 1.0583452042 -2.04462157717 -0.144954514799
34468775 0.06 1.0583452042 -2.04462157717 -0.144954514799
34473775 0.05 1.06046971766 -2.02936320719 -0.221246364693
34473775 0.05 1.06046971766 -2.02936320719 -0.221246364693
34473775 0.05 1.06046971766 -2.02936320719 -0.221246364693
34473775 0.05 1.06046971766 -2.02936320719 -0.221246364693
34473775 0.05 1.06046971766 -2.02936320719 -0.221246364693
34473775 0.05 1.06046971766 -2.02936320719 -0.221246364693
34473775 0.05 1.06046971766 -2.02936320719 -0.221246364693
34473775 0.05 1.06046971766 -2.02936320719 -0.221246364693
34478775 0.04 1.06046971766 -2.02936320719 -0.221246364693
34478775 0.04 1.06046971766 -2.02936320719 -0.221246364693
34478775 0.04 1.06046971766 -2.02936320719 -0.221246364693
34478775 0.04 1.06046971766 -2.02936320719 -0.221246364693
34478775 0.04 1.06046971766 -2.02936320719 -0.221246364693
34478775 0.04 1.06046971766 -2.02936320719 -0.221246364693
34478775 0.04 1.06046971766 -2.02936320719 -0.221246364693
34478775 0.04 1.06046971766 -2.02936320719 -0.221246364693
34483775 0.04 1.0647015238 -1.78522928753 -0.183100439746
34483775 0.04 1.0647015238 -1.78522928753 -0.183100439746
34483775 0.04 1.0647015238 -1.78522928753 -0.183100439746
34483775 0.04 1.0647015238 -1.78522928753 -0.183100439746
34483775 0.04 1.0647015238 -1.78522928753 -0.183100439746
34483775 0.04 1.0647015238 -1.78522928753 -0.183100439746
34483775 0.04 1.0647015238 -1.78522928753 -0.183100439746
34483775 0.04 1.0647015238 -1.78522928753 -0.183100439746
34488775 0.03 1.0647015238 -1.78522928753 -0.183100439746
34488775 0.03 1.0647015238 -1.78522928753 -0.183100439746
34488775 0.03 1.0647015238 -1.78522928753 -0.183100439746
34488775 0.03 1.0647015238 -1.78522928753 -0.183100439746
34488775 0.03 1.0647015238 -1.78522928753 -0.183100439746
34488775 0.03 1.0647015238 -1.78522928753 -0.183100439746
34488775 0.03 1.0647015238 -1.78522928753 -0.183100439746
34488775 0.03 1.0647015238 -1.78522928753 -0.183100439746
34493775 0.03 1.06749142812 -1.72419580761 -0.236504734672
34493775 0.03 1.06749142812 -1.72419580761 -0.236504734672
34493775 0.03 1.06749142812 -1.72419580761 -0.236504734672
34493775 0.03 1.06749142812 -1.72419580761 -0.236504734672
34493775 0.03 1.06749142812 -1.72419580761 -0.236504734672
34493775 0.03 1.06749142812 -1.72419580761 -0.236504734672
34493775 0.03 1.06749142812 -1.72419580761 -0.236504734672
34493775 0.03 1.06749142812 -1.72419580761 -0.236504734672
34498775 0.02 1.06749142812 -1.72419580761 -0.236504734672
34498775 0.02 1.06749142812 -1.72419580761 -0.236504734672
34498775 0.02 1.06749142812 -1.72419580761 -0.236504734672
34498775 0.02 1.06749142812 -1.72419580761 -0.236504734672
34498775 0.02 1.06749142812 -1.72419580761 -0.236504734672
34498775 0.02 1.06749142812 -1.72419580761 -0.236504734672
34498775 0.02 1.06749142812 -1.72419580761 -0.236504734672
34498775 0.02 1.06749142812 -1.72419580761 -0.236504734672
34503775 0.02 1.06923101076 -1.89966706237 -0.221246364693
34503775 0.02 1.06923101076 -1.89966706237 -0.221246364693
34503775 0.02 1.06923101076 -1.89966706237 -0.221246364693
34503775 0.02 1.06923101076 -1.89966706237 -0.221246364693
34503775 0.02 1.06923101076 -1.89966706237 -0.221246364693
34503775 0.02 1.06923101076 -1.89966706237 -0.221246364693
34503775 0.02 1.06923101076 -1.89966706237 -0.221246364693
34503775 0.02 1.06923101076 -1.89966706237 -0.221246364693
34508775 0.02 1.06923101076 -1.89966706237 -0.221246364693
34508775 0.02 1.06923101076 -1.89966706237 -0.221246364693
34508775 0.02 1.06923101076 -1.89966706237 -0.221246364693
34508775 0.02 1.06923101076 -1.89966706237 -0.221246364693
34508775 0.02 1.06923101076 -1.89966706237 -0.221246364693
34508775 0.02 1.06923101076 -1.89966706237 -0.221246364693
34508775 0.02 1.06923101076 -1.89966706237 -0.221246364693
34508775 0.02 1.06923101076 -1.89966706237 -0.221246364693
34513775 0.02 1.0640723046 -1.89966706237 -0.221246364693
34513775 0.02 1.0640723046 -1.89966706237 -0.221246364693
34513775 0.02 1.0640723046 -1.89966706237 -0.221246364693
34513775 0.02 1.0640723046 -1.89966706237 -0.221246364693
34513775 0.02 1.0640723046 -1.89966706237 -0.221246364693
34513775 0.02 1.0640723046 -1.89966706237 -0.221246364693
34513775 0.02 1.0640723046 -1.89966706237 -0.221246364693
34513775 0.02 1.0640723046 -1.89966706237 -0.221246364693
34518775 0.02 1.0640723046 -1.89966706237 -0.221246364693
34518775 0.02 1.0640723046 -1.89966706237 -0.221246364693
34518775 0.02 1.0640723046 -1.89966706237 -0.221246364693
34518775 0.02 1.0640723046 -1.89966706237 -0.221246364693
34518775 0.02 1.0640723046 -1.89966706237 -0.221246364693
34518775 0.02 1.0640723046 -1.89966706237 -0.221246364693
34518775 0.02 1.0640723046 -1.89966706237 -0.221246364693
34518775 0.02 1.0640723046 -1.89966706237 -0.221246364693
34523775 0.02 1.05947754098 -1.86152113742 -0.144954514799
34523775 0.02 1.05947754098 -1.86152113742 -0.144954514799
34523775 0.02 1.05947754098 -1.86152113742 -0.144954514799
34523775 0.02 1.05947754098 -1.86152113742 -0.144954514799
34523775 0.02 1.05947754098 -1.86152113742 -0.144954514799
34523775 0.02 1.05947754098 -1.86152113742 -0.144954514799
34523775 0.02 1.05947754098 -1.86152113742 -0.144954514799
34523775 0.02 1.05947754098 -1.86152113742 -0.144954514799
34528775 0.01 1.05947754098 -1.86152113742 -0.144954514799
34528775 0.01 1.05947754098 -1.86152113742 -0.144954514799
34528775 0.01 1.05947754098 -1.86152113742 -0.144954514799
34528775 0.01 1.05947754098 -1.86152113742 -0.144954514799
34528775 0.01 1.05947754098 -1.86152113742 -0.144954514799
34528775 0.01 1.05947754098 -1.86152113742 -0.144954514799
34528775 0.01 1.05947754098 -1.86152113742 -0.144954514799
34528775 0.01 1.05947754098 -1.86152113742 -0.144954514799
34533775 0.01 1.06578982007 -1.81574602748 -0.13732532981
34533775 0.01 1.06578982007 -1.81574602748 -0.13732532981
34533775 0.01 1.06578982007 -1.81574602748 -0.13732532981
34533775 0.01 1.06578982007 -1.81574602748 -0.13732532981
34533775 0.01 1.06578982007 -1.81574602748 -0.13732532981
34533775 0.01 1.06578982007 -1.81574602748 -0.13732532981
34533775 0.01 1.06578982007 -1.81574602748 -0.13732532981
34533775 0.01 1.06578982007 -1.81574602748 -0.13732532981
34538775 0.01 1.06578982007 -1.81574602748 -0.13732532981
34538775 0.01 1.06578982007 -1.81574602748 -0.13732532981
34538775 0.01 1.06578982007 -1.81574602748 -0.13732532981
34538775 0.01 1.06578982007 -1.81574602748 -0.13732532981
34538775 0.01 1.06578982007 -1.81574602748 -0.13732532981
34538775 0.01 1.06578982007 -1.81574602748 -0.13732532981
34538775 0.01 1.06578982007 -1.81574602748 -0.13732532981
34538775 0.01 1.06578982007 -1.81574602748 -0.13732532981
34543775 0.01 1.06564324369 -1.90729624736 -0.25939228964
34543775 0.01 1.06564324369 -1.90729624736 -0.25939228964
34543775 0.01 1.06564324369 -1.90729624736 -0.25939228964
34543775 0.01 1.06564324369 -1.90729624736 -0.25939228964
34543775 0.01 1.06564324369 -1.90729624736 -0.25939228964
34543775 0.01 1.06564324369 -1.90729624736 -0.25939228964
34543775 0.01 1.06564324369 -1.90729624736 -0.25939228964
34543775 0.01 1.06564324369 -1.90729624736 -0.25939228964
34548775 0.01 1.06564324369 -1.90729624736 -0.25939228964
34548775 0.01 1.06564324369 -1.90729624736 -0.25939228964
34548775 0.01 1.06564324369 -1.90729624736 -0.25939228964
34548775 0.01 1.06564324369 -1.90729624736 -0.25939228964
34548775 0.01 1.06564324369 -1.90729624736 -0.25939228964
34548775 0.01 1.06564324369 -1.90729624736 -0.25939228964
34548775 0.01 1.06564324369 -1.90729624736 -0.25939228964
34548775 0.01 1.06564324369 -1.90729624736 -0.25939228964
34553775 0.01 1.06573388978 -1.89203787738 -0.152583699789
34553775 0.01 1.06573388978 -1.89203787738 -0.152583699789
34553775 0.01 1.06573388978 -1.89203787738 -0.152583699789
34553775 0.01 1.06573388978 -1.89203787738 -0.152583699789
34553775 0.01 1.06573388978 -1.89203787738 -0.152583699789
34553775 0.01 1.06573388978 -1.89203787738 -0.152583699789
34553775 0.01 1.06573388978 -1.89203787738 -0.152583699789
34553775 0.01 1.06573388978 -1.89203787738 -0.152583699789
34558775 0.01 1.06573388978 -1.89203787738 -0.152583699789
34558775 0.01 1.06573388978 -1.89203787738 -0.152583699789
34558775 0.01 1.06573388978 -1.89203787738 -0.152583699789
34558775 0.01 1.06573388978 -1.89203787738 -0.152583699789
34558775 0.01 1.06573388978 -1.89203787738 -0.152583699789
34558775 0.01 1.06573388978 -1.89203787738 -0.152583699789
34558775 0.01 1.06573388978 -1.89203787738 -0.152583699789
34558775 0.01 1.06573388978 -1.89203787738 -0.152583699789
34563775 0.01 1.06373261381 -1.76234173256 -0.228875549683
34563775 0.01 1.06373261381 -1.76234173256 -0.228875549683
34563775 0.01 1.06373261381 -1.76234173256 -0.228875549683
34563775 0.01 1.06373261381 -1.76234173256 -0.228875549683
34563775 0.01 1.06373261381 -1.76234173256 -0.228875549683
34563775 0.01 1.06373261381 -1.76234173256 -0.228875549683
34563775 0.01 1.06373261381 -1.76234173256 -0.228875549683
34563775 0.01 1.06373261381 -1.76234173256 -0.228875549683
34568775 0.01 1.06373261381 -1.76234173256 -0.228875549683
34568775 0.01 1.06373261381 -1.76234173256 -0.228875549683
34568775 0.01 1.06373261381 -1.76234173256 -0.228875549683
34568775 0.01 1.06373261381 -1.76234173256 -0.228875549683
34568775 0.01 1.06373261381 -1.76234173256 -0.228875549683
34568775 0.01 1.06373261381 -1.76234173256 -0.228875549683
34568775 0.01 1.06373261381 -1.76234173256 -0.228875549683
34568775 0.01 1.06373261381 -1.76234173256 -0.228875549683
34573775 0.01 1.06406463393 -1.75471254757 -0.152583699789
34573775 0.01 1.06406463393 -1.75471254757 -0.152583699789
34573775 0.01 1.06406463393 -1.75471254757 -0.152583699789
34573775 0.01 1.06406463393 -1.75471254757 -0.152583699789
34573775 0.01 1.06406463393 -1.75471254757 -0.152583699789
34573775 0.01 1.06406463393 -1.75471254757 -0.152583699789
34573775 0.01 1.06406463393 -1.75471254757 -0.152583699789
34573775 0.01 1.06406463393 -1.75471254757 -0.152583699789
34578775 0.01 1.06406463393 -1.75471254757 -0.152583699789
34578775 0.01 1.06406463393 -1.75471254757 -0.152583699789
34578775 0.01 1.06406463393 -1.75471254757 -0.152583699789
34578775 0.01 1.06406463393 -1.75471254757 -0.152583699789
34578775 0.01 1.06406463393 -1.75471254757 -0.152583699789
34578775 0.01 1.06406463393 -1.75471254757 -0.152583699789
34578775 0.01 1.06406463393 -1.75471254757 -0.152583699789
34578775 0.01 1.06406463393 -1.75471254757 -0.152583699789
34583775 0.01 1.06162101311 -1.85389195243 -0.152583699789
34583775 0.01 1.06162101311 -1.85389195243 -0.152583699789
34583775 0.01 1.06162101311 -1.85389195243 -0.152583699789
34583775 0.01 1.06162101311 -1.85389195243 -0.152583699789
34583775 0.01 1.06162101311 -1.85389195243 -0.152583699789
34583775 0.01 1.06162101311 -1.85389195243 -0.152583699789
34583775 0.01 1.06162101311 -1.85389195243 -0.152583699789
34583775 0.01 1.06162101311 -1.85389195243 -0.152583699789
34588775 0.01 1.06162101311 -1.85389195243 -0.152583699789
34588775 0.01 1.06162101311 -1.85389195243 -0.152583699789
34588775 0.01 1.06162101311 -1.85389195243 -0.152583699789
34588775 0.01 1.06162101311 -1.85389195243 -0.152583699789
34588775 0.01 1.06162101311 -1.85389195243 -0.152583699789
34588775 0.01 1.06162101311 -1.85389195243 -0.152583699789
34588775 0.01 1.06162101311 -1.85389195243 -0.152583699789
34588775 0.01 1.06162101311 -1.85389195243 -0.152583699789
34593775 0.01 1.06529291256 -1.83100439746 -0.228875549683
34593775 0.01 1.06529291256 -1.83100439746 -0.228875549683
34593775 0.01 1.06529291256 -1.83100439746 -0.228875549683
34593775 0.01 1.06529291256 -1.83100439746 -0.228875549683
34593775 0.01 1.06529291256 -1.83100439746 -0.228875549683
34593775 0.01 1.06529291256 -1.83100439746 -0.228875549683
34593775 0.01 1.06529291256 -1.83100439746 -0.228875549683
34593775 0.01 1.06529291256 -1.83100439746 -0.228875549683
34598775 0.01 1.06529291256 -1.83100439746 -0.228875549683
34598775 0.01 1.06529291256 -1.83100439746 -0.228875549683
34598775 0.01 1.06529291256 -1.83100439746 -0.228875549683
34598775 0.01 1.06529291256 -1.83100439746 -0.228875549683
34598775 0.01 1.06529291256 -1.83100439746 -0.228875549683
34598775 0.01 1.06529291256 -1.83100439746 -0.228875549683
34598775 0.01 1.06529291256 -1.83100439746 -0.228875549683
34598775 0.01 1.06529291256 -1.83100439746 -0.228875549683
34603775 0.01 1.06506105439 -1.8767795074 -0.160212884778
34603775 0.01 1.06506105439 -1.8767795074 -0.160212884778
34603775 0.01 1.06506105439 -1.8767795074 -0.160212884778
34603775 0.01 1.06506105439 -1.8767795074 -0.160212884778
34603775 0.01 1.06506105439 -1.8767795074 -0.160212884778
34603775 0.01 1.06506105439 -1.8767795074 -0.160212884778
34603775 0.01 1.06506105439 -1.8767795074 -0.160212884778
34603775 0.01 1.06506105439 -1.8767795074 -0.160212884778
34608775 0.01 1.06506105439 -1.8767795074 -0.160212884778
34608775 0.01 1.06506105439 -1.8767795074 -0.160212884778
34608775 0.01 1.06506105439 -1.8767795074 -0.160212884778
34608775 0.01 1.06506105439 -1.8767795074 -0.160212884778
34608775 0.01 1.06506105439 -1.8767795074 -0.160212884778
34608775 0.01 1.06506105439 -1.8767795074 -0.160212884778
34608775 0.01 1.06506105439 -1.8767795074 -0.160212884778
34608775 0.01 1.06506105439 -1.8767795074 -0.160212884778
34613775 0.00 1.06786200263 -1.91492543235 -0.114437774841
34613775 0.00 1.06786200263 -1.91492543235 -0.114437774841
34613775 0.00 1.06786200263 -1.91492543235 -0.114437774841
34613775 0.00 1.06786200263 -1.91492543235 -0.114437774841
34613775 0.00 1.06786200263 -1.91492543235 -0.114437774841
34613775 0.00 1.06786200263 -1.91492543235 -0.114437774841
34613775 0.00 1.06786200263 -1.91492543235 -0.114437774841
34613775 0.00 1.06786200263 -1.91492543235 -0.114437774841
34618775 0.00 1.06786200263 -1.91492543235 -0.114437774841
34618775 0.00 1.06786200263 -1.91492543235 -0.114437774841
34618775 0.00 1.06786200263 -1.91492543235 -0.114437774841
34618775 0.00 1.06786200263 -1.91492543235 -0.114437774841
34618775 0.00 1.06786200263 -1.91492543235 -0.114437774841
34618775 0.00 1.06786200263 -1.91492543235 -0.114437774841
34618775 0.00 1.06786200263 -1.91492543235 -0.114437774841
34618775 0.00 1.06786200263 -1.91492543235 -0.114437774841
34623775 0.00 1.06599396117 -1.89203787738 -0.221246364693
34623775 0.00 1.06599396117 -1.89203787738 -0.221246364693
34623775 0.00 1.06599396117 -1.89203787738 -0.221246364693
34623775 0.00 1.06599396117 -1.89203787738 -0.221246364693
34623775 0.00 1.06599396117 -1.89203787738 -0.221246364693
34623775 0.00 1.06599396117 -1.89203787738 -0.221246364693
34623775 0.00 1.06599396117 -1.89203787738 -0.221246364693
34623775 0.00 1.06599396117 -1.89203787738 -0.221246364693
34628776 0.00 1.06599396117 -1.89203787738 -0.221246364693
34628776 0.00 1.06599396117 -1.89203787738 -0.221246364693
34628776 0.00 1.06599396117 -1.89203787738 -0.221246364693
34628776 0.00 1.06599396117 -1.89203787738 -0.221246364693
34628776 0.00 1.06599396117 -1.89203787738 -0.221246364693
34628776 0.00 1.06599396117 -1.89203787738 -0.221246364693
34628776 0.00 1.06599396117 -1.89203787738 -0.221246364693
34628776 0.00 1.06599396117 -1.89203787738 -0.221246364693
34633776 0.00 1.0632771707 -1.89203787738 -0.213617179704
34633776 0.00 1.0632771707 -1.89203787738 -0.213617179704
34633776 0.00 1.0632771707 -1.89203787738 -0.213617179704
34633776 0.00 1.0632771707 -1.89203787738 -0.213617179704
34633776 0.00 1.0632771707 -1.89203787738 -0.213617179704
34633776 0.00 1.0632771707 -1.89203787738 -0.213617179704
34633776 0.00 1.0632771707 -1.89203787738 -0.213617179704
34633776 0.00 1.0632771707 -1.89203787738 -0.213617179704
34638776 0.00 1.0632771707 -1.89203787738 -0.213617179704
34638776 0.00 1.0632771707 -1.89203787738 -0.213617179704
34638776 0.00 1.0632771707 -1.89203787738 -0.213617179704
34638776 0.00 1.0632771707 -1.89203787738 -0.213617179704
34638776 0.00 1.0632771707 -1.89203787738 -0.213617179704
34638776 0.00 1.0632771707 -1.89203787738 -0.213617179704
34638776 0.00 1.0632771707 -1.89203787738 -0.213617179704
34638776 0.00 1.0632771707 -1.89203787738 -0.213617179704
34643775 0.00 1.06471697486 -1.78522928753 -0.114437774841
34643775 0.00 1.06471697486 -1.78522928753 -0.114437774841
34643775 0.00 1.06471697486 -1.78522928753 -0.114437774841
34643775 0.00 1.06471697486 -1.78522928753 -0.114437774841
34643775 0.00 1.06471697486 -1.78522928753 -0.114437774841
34643775 0.00 1.06471697486 -1.78522928753 -0.114437774841
34643775 0.00 1.06471697486 -1.78522928753 -0.114437774841
34643775 0.00 1.06471697486 -1.78522928753 -0.114437774841
34648776 0.00 1.06471697486 -1.78522928753 -0.114437774841
34648776 0.00 1.06471697486 -1.78522928753 -0.114437774841
34648776 0.00 1.06471697486 -1.78522928753 -0.114437774841
34648776 0.00 1.06471697486 -1.78522928753 -0.114437774841
34648776 0.00 1.06471697486 -1.78522928753 -0.114437774841
34648776 0.00 1.06471697486 -1.78522928753 -0.114437774841
34648776 0.00 1.06471697486 -1.78522928753 -0.114437774841
34648776 0.00 1.06471697486 -1.78522928753 -0.114437774841
34653776 0.00 1.06334224445 -1.85389195243 -0.152583699789
34653776 0.00 1.06334224445 -1.85389195243 -0.152583699789
34653776 0.00 1.06334224445 -1.85389195243 -0.152583699789
34653776 0.00 1.06334224445 -1.85389195243 -0.152583699789
34653776 0.00 1.06334224445 -1.85389195243 -0.152583699789
34653776 0.00 1.06334224445 -1.85389195243 -0.152583699789
34653776 0.00 1.06334224445 -1.85389195243 -0.152583699789
34653776 0.00 1.06334224445 -1.85389195243 -0.152583699789
34658776 0.00 1.06334224445 -1.85389195243 -0.152583699789
34658776 0.00 1.06334224445 -1.85389195243 -0.152583699789
34658776 0.00 1.06334224445 -1.85389195243 -0.152583699789
34658776 0.00 1.06334224445 -1.85389195243 -0.152583699789
34658776 0.00 1.06334224445 -1.85389195243 -0.152583699789
34658776 0.00 1.06334224445 -1.85389195243 -0.152583699789
34658776 0.00 1.06334224445 -1.85389195243 -0.152583699789
34658776 0.00 1.06334224445 -1.85389195243 -0.152583699789
34663776 0.00 1.0658257043 -1.78522928753 -0.183100439746
34663776 0.00 1.0658257043 -1.78522928753 -0.183100439746
34663776 0.00 1.0658257043 -1.78522928753 -0.183100439746
34663776 0.00 1.0658257043 -1.78522928753 -0.183100439746
34663776 0.00 1.0658257043 -1.78522928753 -0.183100439746
34663776 0.00 1.0658257043 -1.78522928753 -0.183100439746
34663776 0.00 1.0658257043 -1.78522928753 -0.183100439746
34663776 0.00 1.0658257043 -1.78522928753 -0.183100439746
34668776 0.00 1.0658257043 -1.78522928753 -0.183100439746
34668776 0.00 1.0658257043 -1.78522928753 -0.183100439746
34668776 0.00 1.0658257043 -1.78522928753 -0.183100439746
34668776 0.00 1.0658257043 -1.78522928753 -0.183100439746
34668776 0.00 1.0658257043 -1.78522928753 -0.183100439746
34668776 0.00 1.0658257043 -1.78522928753 -0.183100439746
34668776 0.00 1.0658257043 -1.78522928753 -0.183100439746
34668776 0.00 1.0658257043 -1.78522928753 -0.183100439746
34673776 0.00 1.06096842767 -1.79285847252 -0.205987994715
34673776 0.00 1.06096842767 -1.79285847252 -0.205987994715
34673776 0.00 1.06096842767 -1.79285847252 -0.205987994715
34673776 0.00 1.06096842767 -1.79285847252 -0.205987994715
34673776 0.00 1.06096842767 -1.79285847252 -0.205987994715
34673776 0.00 1.06096842767 -1.79285847252 -0.205987994715
34673776 0.00 1.06096842767 -1.79285847252 -0.205987994715
34673776 0.00 1.06096842767 -1.79285847252 -0.205987994715
34678775 0.00 1.06096842767 -1.79285847252 -0.205987994715
34678775 0.00 1.06096842767 -1.79285847252 -0.205987994715
34678775 0.00 1.06096842767 -1.79285847252 -0.205987994715
34678775 0.00 1.06096842767 -1.79285847252 -0.205987994715
34678775 0.00 1.06096842767 -1.79285847252 -0.205987994715
34678775 0.00 1.06096842767 -1.79285847252 -0.205987994715
34678775 0.00 1.06096842767 -1.79285847252 -0.205987994715
34678775 0.00 1.06096842767 -1.79285847252 -0.205987994715
34683776 0.00 1.06567835157 -1.71656662262 -0.305167399577
34683776 0.00 1.06567835157 -1.71656662262 -0.305167399577
34683776 0.00 1.06567835157 -1.71656662262 -0.305167399577
34683776 0.00 1.06567835157 -1.71656662262 -0.305167399577
34683776 0.00 1.06567835157 -1.71656662262 -0.305167399577
34683776 0.00 1.06567835157 -1.71656662262 -0.305167399577
34683776 0.00 1.06567835157 -1.71656662262 -0.305167399577
34683776 0.00 1.06567835157 -1.71656662262 -0.305167399577
